TIME,ECG,ECG_Filtered
1769948,4.00293,1.13469
1771904,3.92473,-1.52393
1773908,3.84164,-0.63817
1783024,3.46041,0.22585
1809028,2.04790,0.34571
1835040,0.60606,0.61486
1861040,0.00978,0.71200
1887000,0.00000,0.21027
1913040,0.06843,-0.42094
1940040,0.00000,-0.65304
1967124,0.00489,-0.40372
1994124,0.00000,-0.11944
2021164,0.00000,0.09410
2047160,0.00000,0.18534
2073156,0.00000,0.17910
2099160,0.00000,0.12110
2125164,0.00000,0.05255
2151204,0.00489,0.00028
2177168,0.00000,-0.03398
2204200,0.00000,-0.03766
2231236,0.00000,-0.03141
2258312,0.16618,0.02700
2284312,0.62561,0.05915
2310320,0.94330,-0.10939
2337352,1.16325,-0.11454
2364396,1.30987,-0.02867
2391436,1.55914,0.09482
2417440,2.20430,0.19012
2443444,2.60508,-0.07275
2470476,4.15933,0.24815
2496476,4.96579,-0.34437
2523512,5.00000,-0.42913
2550556,4.99511,0.06663
2576560,4.99511,0.31958
2602556,4.99511,0.27515
2628556,4.99511,0.10891
2654556,4.99511,-0.03996
2681596,5.00000,-0.11363
2708644,4.99511,-0.12309
2735676,5.00000,-0.08105
2762724,5.00000,-0.03687
2789768,5.00000,0.00175
2815760,5.00000,0.02387
2841764,5.00000,0.02983
2867760,5.00000,0.02505
2893760,5.00000,0.01570
2919764,5.00000,0.00651
2945764,5.00000,-0.00010
2972808,5.00000,-0.00348
2999840,5.00000,-0.00428
3026884,4.99511,-0.00487
3053928,5.00000,0.00113
3079928,5.00000,-0.00180
3106972,5.00000,-0.00101
3134008,5.00000,0.00018
3160008,5.00000,0.00080
3186008,5.00000,0.00082
3212012,5.00000,0.00056
3238016,5.00000,0.00023
3264004,4.37439,-0.17738
3291044,1.28055,-0.64244
3318084,0.01955,0.90372
3344036,0.00000,0.91977
3370044,0.00000,-0.10720
3397076,0.00000,-0.61877
3424120,0.00000,-0.56200
3451172,0.00000,-0.25846
3478204,0.00000,0.03001
3504208,0.00000,0.18967
3530200,0.00000,0.21801
3556196,0.00000,0.16374
3582196,0.00000,0.08167
3608204,0.00000,0.01022
3634208,0.00000,-0.03346
3661240,0.00000,-0.04880
3688280,0.00000,-0.04408
3715320,0.00000,-0.02967
3742360,0.00000,-0.01401
3769412,0.00000,-0.00198
3796472,0.88954,0.25698
3822468,3.07918,0.29398
3848480,4.95112,-0.42776
3875512,5.00000,-0.97218
3902564,5.00000,-0.02668
3929600,5.00000,0.55361
3955596,5.00000,0.56324
3981596,5.00000,0.28931
4007596,5.00000,0.00126
4033600,5.00000,-0.17112
4060636,5.00000,-0.21329
4087676,5.00000,-0.16815
4114720,5.00000,-0.08964
4141764,3.96383,-0.31133
4168808,2.13587,-0.10074
4195840,1.43206,0.69985
4221836,2.48289,0.82515
4247832,4.13490,-0.06836
4274872,4.98534,-0.97157
4301920,5.00000,-0.85328
4328960,5.00000,-0.00490
4355996,5.00000,0.46711
4381992,5.00000,0.49166
4407992,5.00000,0.28923
4433996,5.00000,0.06063
4459992,5.00000,-0.09126
4487040,4.99511,-0.14814
4514076,5.00000,-0.12807
4541124,5.00000,-0.08336
4568172,4.99022,-0.03440
4595204,4.91691,-0.01033
4622244,4.42326,-0.08472
4649288,3.81720,0.05391
4675276,3.83187,0.32726
4701280,4.67253,0.29588
4727276,4.97067,-0.35466
4754312,5.00000,-0.38741
4781356,3.72434,-0.44771
4808400,1.97947,0.11134
4834404,0.99218,0.75502
4860396,1.55425,0.84003
4886396,2.95210,0.07133
4912396,3.62170,-0.91644
4939436,2.89345,-1.08134
4966484,1.95992,-0.11931
4993512,1.14370,0.57165
5019516,1.08504,0.80566
5045516,1.38319,0.34663
5071516,1.77908,-0.16924
5098560,2.25318,-0.35954
5125596,3.38710,-0.12579
5152632,4.50635,-0.20702
5179676,2.97165,-0.89825
5206716,0.22483,-0.10636
5233724,0.00000,1.60244
5259720,0.00000,0.76262
5285724,0.00000,-0.23271
5312760,0.00000,-0.61816
5339800,0.00000,-0.52450
5366848,0.00000,-0.24715
5393920,0.00978,0.00729
5419876,0.00000,0.13861
5445916,1.34897,0.56029
5471916,2.69795,0.01564
5497924,4.78983,-0.05615
5524952,4.99511,-0.83049
5551996,4.99511,-0.13673
5579036,5.00000,0.43637
5605036,5.00000,0.49652
5631040,5.00000,0.27204
5657036,3.99804,-0.27241
5684076,0.26882,-0.83384
5711080,0.00000,1.28620
5737080,0.00000,0.46844
5763084,0.00000,-0.46358
5790120,0.00000,-0.70609
5817160,0.00000,-0.47411
5844204,0.00000,-0.11907
5871244,0.00000,0.14290
5897248,0.00000,0.24887
5923236,0.00000,0.22930
5949236,0.00000,0.14624
5975244,0.00000,0.05451
6001244,0.00000,-0.01367
6028280,0.00000,-0.04838
6055320,0.00000,-0.05448
6082360,0.00000,-0.04313
6109400,0.00000,-0.02543
6136444,0.00000,-0.00920
6163524,0.01466,0.00595
6189480,0.00000,-0.00265
6216556,0.01466,0.01506
6242520,0.00000,-0.00026
6269556,0.00000,0.00763
6295564,0.00000,0.00396
6321556,0.00000,-0.00036
6348632,0.73314,0.20536
6374640,2.95210,0.35138
6400636,4.91202,-0.39653
6427684,4.99511,-1.01619
6454720,4.99022,-0.07782
6481760,5.00000,0.54626
6507756,5.00000,0.57423
6533756,5.00000,0.30774
6559764,4.99511,0.01486
6585752,5.00000,-0.16078
6612796,5.00000,-0.21428
6639840,5.00000,-0.17332
6666880,5.00000,-0.09501
6693928,5.00000,-0.02140
6720964,4.99511,0.02538
6746960,5.00000,0.04979
6772956,5.00000,0.04382
6798956,5.00000,0.03077
6824968,5.00000,0.01605
6850960,5.00000,0.00399
6876960,5.00000,-0.00347
6904008,5.00000,-0.00641
6931040,5.00000,-0.00618
6958088,5.00000,-0.00434
6985128,5.00000,-0.00219
7012168,5.00000,-0.00045
7039204,5.00000,0.00057
7065204,5.00000,0.00098
7091212,5.00000,0.00088
7117208,5.00000,0.00060
7143212,3.49462,-0.42644
7170248,2.26295,0.21566
7196236,0.48876,0.20122
7222232,2.34115,1.27959
7248236,4.70186,-0.05367
7275272,4.99511,-1.58162
7302320,4.99511,-0.81867
7329352,5.00000,0.17838
7355352,5.00000,0.59687
7381352,5.00000,0.53875
7407352,5.00000,0.27914
7433360,5.00000,0.02699
7459352,5.00000,-0.12447
7486400,4.99511,-0.16984
7513440,5.00000,-0.13666
7540484,3.98338,-0.37049
7567528,1.65689,-0.30386
7594560,0.06354,0.59819
7620520,0.00000,0.91167
7646560,0.21017,0.05219
7672556,1.53959,-0.24365
7699600,2.51222,-0.78811
7726636,2.98631,-0.69005
7753676,3.53372,-0.03821
7780716,4.89247,0.56770
7806716,4.99511,-0.02542
7833760,5.00000,0.17263
7859752,5.00000,0.30288
7885756,5.00000,0.21555
7911756,5.00000,0.04068
7937752,5.00000,-0.09911
7964800,5.00000,-0.15666
7991836,5.00000,-0.14245
8018880,5.00000,-0.09035
8045924,5.00000,-0.03289
8072964,4.60899,-0.10081
8100004,2.27761,-0.48220
8127036,0.38123,0.43579
8153032,0.00489,0.97990
8179032,0.86022,0.47850
8205036,3.42131,-0.05623
8232080,4.10068,-1.49399
8259116,3.17204,-1.22890
8286156,1.04594,-0.11559
8313196,0.27370,1.39197
8339196,1.96481,1.67587
8365204,3.76344,0.05305
8391192,4.27664,-1.22656
8418232,3.95894,-0.97414
8445276,3.43109,-0.08099
8472312,3.05474,0.51916
8498320,3.53861,0.73825
8524316,3.76344,0.08407
8550316,3.39687,-0.36847
8577356,3.01564,-0.18050
8604404,2.62463,0.00138
8630404,3.05474,0.29705
8656396,4.16911,0.16465
8682396,4.38905,-0.51790
8709444,3.93939,-0.45085
8736484,2.92278,-0.05242
8763524,2.17498,0.48065
8789520,1.60802,0.46371
8815520,1.23167,0.19010
8841516,0.52297,-0.22323
8868560,1.27566,0.19680
8894564,0.21994,-0.76887
8921564,0.00000,-0.00774
8948636,0.63050,0.36342
8974636,3.22092,0.57074
9000636,4.93157,-0.59274
9027684,4.99511,-1.00890
9054716,4.44770,-0.16682
9081756,3.20626,0.44717
9107756,2.32160,0.90683
9133756,1.93548,0.69847
9159764,1.65689,0.04751
9185756,1.53470,-0.35352
9212796,1.46139,-0.47588
9239840,1.83773,-0.24433
9266876,2.06256,-0.24805
9293924,1.65200,-0.25869
9320956,1.36852,0.17572
9346952,0.78201,0.22126
9372956,0.06354,0.22714
9398924,0.00000,0.37549
9424928,0.00000,0.03382
9450920,0.00000,-0.20920
9477960,0.00000,-0.23543
9505000,0.00000,-0.14055
9532040,0.00000,-0.02783
9559120,0.08798,0.07240
9585116,0.37634,0.12279
9611116,0.38123,-0.05617
9638152,0.03910,-0.09979
9665192,0.00489,0.16439
9691200,0.01466,0.11759
9717160,0.00000,-0.00542
9744236,0.00489,-0.05320
9771244,0.00000,-0.06452
9798280,0.00000,-0.03999
9825332,0.00000,-0.01346
9852396,0.41056,0.12199
9878396,1.21701,0.08899
9904396,2.34604,-0.03370
9931444,3.43597,-0.20395
9958484,3.64125,-0.40763
9985516,3.28446,-0.10486
10012564,2.99120,0.36992
10039596,3.15738,0.54083
10066640,3.14761,0.11946
10093680,2.62952,-0.25400
10121760,1.74487,-0.23891
10149840,0.78201,-0.01625
10177916,0.47898,0.28715
10204956,0.63050,0.14297
10232004,0.91398,-0.17002
10260072,0.98729,-0.35836
10288160,0.97752,-0.20716
10316232,1.03128,0.04376
10343276,1.43206,0.24242
10370316,2.33627,0.25457
10397356,2.90323,-0.13423
10425440,3.18182,-0.20221
10453520,3.47019,0.00786
10480556,2.85924,-0.13753
10508636,2.29228,0.20553
10535676,1.84262,0.30730
10562724,1.42229,0.14065
10589760,2.45357,0.35837
10616800,0.79179,-1.04677
10644880,0.64027,0.15738
10671916,0.95797,0.31480
10698960,1.38807,0.01156
10726000,1.67155,-0.22766
10754084,1.92082,-0.16178
10782156,2.49756,0.08415
10809200,3.22092,0.10153
10836232,3.64614,-0.06830
10864312,2.75660,-0.35694
10892404,1.17302,0.00185
10919436,0.09775,0.61596
10946440,0.00000,0.68130
10973484,0.00000,-0.02547
11001560,0.00000,-0.45878
11029648,0.00000,-0.46643
11057720,0.00000,-0.25589
11085800,0.00000,-0.02810
11113880,0.00000,0.11570
11140924,0.00000,0.15998
11167956,0.00000,0.13415
11195000,0.00000,0.07819
11222048,0.00000,0.02325
11249116,0.28348,0.06596
11276152,0.59629,-0.04907
11304232,0.65982,-0.17710
11332316,1.10459,0.04861
11359364,2.00880,0.13109
11386396,3.05963,-0.03362
11414476,3.30401,-0.37999
11442560,3.29912,-0.11109
11470640,2.73216,0.05126
11497680,2.95699,0.54594
11524716,4.85337,0.70284
11551764,4.99511,-0.73160
11579832,5.00000,-0.50171
11607912,5.00000,-0.02349
11635996,4.83871,0.16003
11663036,4.19355,0.08153
11690080,3.58749,0.19856
11717116,3.04008,0.16549
11744160,2.60020,0.05075
11771208,2.48289,-0.00720
11799276,2.65396,-0.09806
11827364,3.08895,-0.15250
11855436,3.73900,-0.15013
11883516,4.26686,-0.18181
11911596,4.45259,-0.13574
11939680,4.03715,-0.04865
11967756,3.08407,0.13096
11994800,1.46139,0.19748
12021840,0.70870,0.63588
12048876,1.13392,0.53049
12075920,1.65200,-0.27274
12104004,1.59824,-0.79143
12132080,1.46628,-0.47035
12160160,1.84751,0.11068
12187196,2.18475,0.14448
12214236,1.88661,-0.06143
12242324,1.86706,0.22968
12269352,2.13587,0.28357
12296392,3.63636,0.40658
12323436,4.98045,-0.24619
12351516,5.00000,-0.78992
12379596,4.99511,-0.14817
12407676,4.99511,0.29915
12434712,5.00000,0.35985
12461756,4.99022,0.20328
12488800,5.00000,0.03309
12515836,5.00000,-0.09141
12543916,5.00000,-0.12786
12572000,5.00000,-0.10564
12600084,5.00000,-0.05934
12628172,5.00000,-0.01485
12656244,5.00000,0.01491
12683284,5.00000,0.02759
12710320,5.00000,0.02715
12737360,5.00000,0.01962
12764404,5.00000,0.01033
12791444,4.74096,-0.07077
12819524,2.90323,-0.42583
12847596,1.05083,0.20208
12874632,0.04399,0.68258
12901636,0.00000,0.48885
12928676,0.00000,-0.25959
12956764,0.00000,-0.55873
12984844,0.00000,-0.43042
13012924,0.00000,-0.14965
13041000,0.00000,0.08249
13068040,0.00000,0.19197
13095080,0.00000,0.19193
13122116,0.00000,0.13056
13149164,0.00000,0.05501
13176232,2.25318,0.63398
13203272,2.91789,-0.69442
13231352,4.43793,-0.22668
13259436,4.53079,-0.52549
13287524,4.03226,-0.06097
13315600,3.07429,0.35323
13342640,1.71554,0.45328
13369676,1.70577,0.80187
13396720,1.87195,0.09069
13423768,1.68133,-0.56256
13451840,1.73509,-0.43852
13479920,2.90323,0.04605
13506956,4.51124,-0.05614
13535036,4.99022,-0.57618
13563112,5.00000,-0.20869
13591192,5.00000,0.34320
13618236,5.00000,0.49184
13645276,4.93157,0.31722
13672312,3.87586,-0.17661
13700396,2.30205,-0.12335
13728476,0.70381,0.13982
13755520,0.02444,0.41834
13782520,0.00000,0.12352
13809596,0.09286,-0.36855
13837676,0.84066,-0.31950
13865760,1.25611,-0.47228
13893836,0.15640,-0.61167
13921880,0.00000,0.51783
13948920,0.00000,0.59398
13975960,0.00000,0.26946
14003004,0.00000,0.00185
14030076,0.00489,-0.11730
14058152,0.93842,0.13418
14085212,2.47801,-0.00112
14113276,4.07136,-0.31178
14141356,4.47703,-0.66109
14169436,4.14956,-0.23129
14197524,2.89834,0.17452
14224564,1.65200,0.66226
14251596,0.79179,0.69439
14278640,0.18573,0.25368
14305680,0.34702,-0.02864
14333756,0.72336,-0.44082
14361840,1.73998,-0.39131
14389916,1.82307,-0.69796
14418000,0.56207,-0.53662
14446072,0.39589,0.69319
14473112,1.89638,1.08532
14500164,3.64614,0.16915
14527192,3.68035,-0.95415
14555276,3.01075,-0.54911
14583356,2.10166,0.18453
14610396,1.35875,0.58500
14637436,1.38319,0.62662
14664476,2.44868,0.31597
14691528,3.81720,-0.34228
14719600,4.90225,-0.73216
14747688,4.39394,-0.90815
14775756,3.08895,-0.14695
14803836,0.12219,0.19230
14830840,0.00000,1.71242
14857884,0.00000,0.60541
14884928,0.00000,-0.41450
14913000,0.00000,-0.72292
14941120,0.05865,-0.52669
14969200,2.26784,0.39270
14996240,4.66764,-0.10016
15024320,4.99511,-0.96811
15052392,4.91202,-0.16108
15080484,3.69501,0.28779
15107524,1.92571,0.66833
15134556,0.77713,0.93987
15161596,0.49365,0.59486
15188636,0.98729,-0.06242
15216724,2.74682,-0.38187
15244796,4.88759,-0.78947
15272876,4.99511,-1.36805
15300956,4.99511,-0.21331
15329040,2.77615,-0.00573
15357120,0.05865,0.83353
15384116,0.00000,1.86884
15411160,0.00000,0.45473
15438200,0.00000,-0.61878
15466280,0.00000,-0.87066
15494396,1.24145,-0.25892
15522480,4.87292,0.34711
15549520,4.30596,-1.63684
15577596,4.55523,0.01602
15604636,2.50244,0.09563
15631684,4.12023,1.98933
15658716,4.98534,0.43456
15685764,4.99511,-0.62985
15713832,5.00000,-0.48205
15741912,5.00000,-0.18019
15769992,5.00000,0.00203
15797036,4.99022,0.05540
15824076,4.62366,-0.05284
15852156,3.42131,-0.18285
15880248,2.54154,0.25722
15907280,1.95503,0.31783
15934316,1.44184,0.06317
15961352,0.70870,-0.20973
15989436,0.08798,-0.14049
16017524,0.13685,0.10421
16044556,0.76246,0.07170
16071600,1.68133,-0.12601
16099676,2.32649,-0.33484
16127756,1.97947,-0.41537
16155840,0.45455,-0.15933
16183876,0.00000,0.84793
16210920,0.00000,0.68424
16237960,0.00000,0.04104
16265000,0.00000,-0.31774
16293076,0.00000,-0.35399
16321196,1.26588,0.13634
16348240,3.83675,0.18950
16375276,4.98045,-0.79793
16403348,5.00000,-0.65378
16431432,5.00000,0.27058
16458480,4.99511,0.66080
16485524,4.95601,0.52636
16512556,3.68035,-0.13507
16540636,3.38221,0.33024
16567672,3.76344,0.20971
16594712,4.15933,-0.30581
16622796,4.55523,-0.47347
16650872,4.17400,-0.55598
16678964,2.83969,-0.30079
16707032,1.14858,0.26358
16734072,0.06354,0.74806
16761116,0.00489,0.67964
16788160,0.35679,0.00670
16815204,1.34897,-0.34013
16843280,1.49071,-0.83577
16871360,0.21017,-0.76098
16899400,0.00000,0.53840
16926472,0.93842,0.89169
16953520,3.45552,0.61743
16980556,4.96579,-0.69546
17008632,5.00000,-1.03219
17036724,4.99511,-0.06476
17064796,5.00000,0.51335
17091836,5.00000,0.52851
17118872,5.00000,0.27481
17145924,5.00000,0.00568
17172952,5.00000,-0.15659
17201036,4.99511,-0.19900
17229128,4.89247,-0.18415
17257204,4.73118,-0.09083
17285292,4.70186,0.05091
17312324,4.83382,0.09204
17339360,3.45552,-0.41988
17367440,3.49951,0.51148
17394476,3.36755,0.17968
17421516,3.21603,-0.07398
17449596,3.18671,-0.10755
17477684,3.34311,-0.06400
17505760,3.49462,-0.08893
17533840,3.63148,-0.06044
17561928,3.49951,-0.07412
17589996,3.37732,0.07431
17617048,3.41153,0.17084
17644080,3.33333,0.04722
17671120,3.23558,-0.00305
17699200,2.96676,-0.06468
17727284,2.07234,-0.18309
17755356,1.01173,0.03125
17782400,0.18573,0.25204
17809440,0.01955,0.31359
17836480,0.21994,0.01492
17863516,0.59629,-0.25827
17891596,1.09971,-0.30224
17919680,1.77908,-0.16425
17947764,2.45357,-0.06285
17975836,2.72239,-0.06520
18003916,1.45161,-0.27663
18031996,0.04888,0.34151
18058996,0.00000,0.95990
18086044,0.00000,0.26349
18113084,0.00000,-0.30354
18141160,0.00000,-0.45202
18169240,0.00000,-0.32783
18197324,0.00000,-0.12502
18225400,0.00000,0.03569
18252444,0.00000,0.11411
18279488,0.00000,0.12110
18306520,0.00000,0.08724
18333556,0.00000,0.04199
18360612,0.00000,0.00449
18387640,0.00000,-0.01758
18415724,0.00000,-0.02481
18443832,0.96285,0.25102
18470880,4.82893,0.72028
18497916,4.99511,-1.56470
18525996,4.99511,-0.61505
18554080,5.00000,0.40079
18581120,5.00000,0.69709
18608160,5.00000,0.50047
18635196,5.00000,0.16002
18662232,5.00000,-0.10377
18690312,5.00000,-0.22067
18718396,5.00000,-0.21434
18746484,5.00000,-0.14223
18774564,5.00000,-0.05734
18802644,5.00000,0.00808
18829680,3.78788,-0.30076
18857760,2.94721,0.26696
18884800,3.25024,0.63739
18911836,3.70968,0.08888
18938876,2.54154,-0.78380
18966952,0.86510,-0.35118
18995032,0.59140,0.66796
19022076,1.64712,0.66970
19049116,3.01564,-0.13165
19077200,4.06158,-0.68418
19105276,4.62366,-0.59969
19133360,4.99511,-0.08694
19161436,4.20821,-0.00239
19189516,0.12708,-0.42314
19217564,0.00000,1.98663
19244600,0.00000,0.80049
19271644,0.00000,-0.43285
19299720,0.00000,-0.84960
19327800,0.00000,-0.66918
19355884,0.00000,-0.28366
19383964,0.00000,0.04375
19411008,0.00000,0.21449
19438076,3.56305,1.25026
19465116,4.98045,-0.75607
19493196,4.99022,-1.01227
19521276,5.00000,0.04290
19548324,5.00000,0.59452
19575356,5.00000,0.56104
19602396,5.00000,0.26049
19629432,5.00000,-0.03366
19657512,5.00000,-0.19854
19685596,5.00000,-0.22826
19713680,4.99511,-0.17324
19741768,4.87781,-0.11753
19769844,4.87781,0.03364
19796884,4.93157,0.06865
19823920,5.00000,0.04121
19850960,5.00000,-0.00589
19879048,4.99511,0.00950
19906080,5.00000,0.02644
19933120,5.00000,0.01971
19960156,5.00000,0.00924
19987200,5.00000,-0.00039
20015284,4.38905,-0.17942
20043360,0.27859,-0.94384
20071440,0.00489,1.55626
20098472,0.28348,0.79470
20125516,1.63734,-0.06686
20153596,3.46530,-0.73402
20181676,4.92180,-0.99665
20209760,4.99511,-0.86463
20237832,5.00000,0.19529
20264872,5.00000,0.74598
20291912,5.00000,0.69566
20318952,5.00000,0.36157
20346000,5.00000,0.02499
20373032,5.00000,-0.17972
20401116,4.89247,-0.26854
20429200,3.28935,-0.61030
20457284,2.35582,0.24117
20484320,2.26295,0.54120
20511360,2.39980,0.11300
20538404,2.53666,-0.27036
20566476,2.18964,-0.45570
20594552,0.88465,-0.39941
20622636,0.01955,0.33391
20649640,0.00000,0.63457
20676688,0.00000,0.13823
20703756,1.51026,0.23032
20730796,4.42815,0.00958
20757832,4.33040,-1.51564
20785916,2.57576,-0.84600
20814000,0.91398,0.69587
20841036,0.05376,1.34187
20868036,0.00000,0.89201
20895116,0.04888,-0.08964
20923196,1.25611,-0.28871
20951272,0.25904,-1.34248
20979352,1.07038,0.07734
21006404,1.37341,-0.02163
21034472,0.89443,-0.14795
21062552,0.07331,0.12590
21089568,0.00000,0.59901
21116600,0.00000,0.29255
21143648,0.00000,-0.05817
21171720,0.00000,-0.20634
21199840,0.36657,-0.08601
21227916,2.23363,0.28800
21254960,4.25709,-0.20413
21283036,4.99022,-0.79047
21311116,4.99511,-0.35732
21339200,5.00000,0.39202
21366244,4.99511,0.60173
21393276,5.00000,0.41713
21420320,4.99511,0.10951
21447356,5.00000,-0.11336
21475440,5.00000,-0.21172
21503520,4.89247,-0.22776
21531600,4.13001,-0.30212
21559684,3.91496,0.19524
21586720,3.90029,0.20331
21613772,3.85142,-0.00297
21641836,4.03226,-0.02171
21669924,4.21799,-0.09285
21697992,4.00782,-0.19489
21726080,3.43109,-0.09253
21754156,2.97165,0.19587
21781196,2.60508,0.23406
21808244,2.34115,0.12168
21835276,3.65591,0.40689
21862320,1.73021,-1.17512
21890396,1.42229,0.25520
21917440,1.36852,0.40214
21944484,1.50538,0.14670
21971520,1.50538,-0.16249
21999596,1.46628,-0.18425
22027676,1.84262,0.04126
22054712,2.06256,-0.06378
22082796,2.03812,-0.09754
22110880,1.54936,-0.08206
22138960,1.15347,0.18607
22165996,1.29521,0.35811
22193040,1.46628,0.05974
22220084,1.49071,-0.19223
22248156,1.42229,-0.19470
22276240,1.01173,-0.16338
22304320,0.38612,-0.00451
22332400,0.08309,0.25348
22359436,0.35679,0.29710
22386476,0.49853,-0.09786
22414556,0.92375,-0.12858
22442640,1.71065,-0.07156
22470720,2.42424,-0.16740
22498800,2.98143,-0.14244
22526876,3.31378,-0.03503
22554956,3.48485,0.10364
22582000,3.30890,0.10755
22609044,3.26491,0.23633
22636080,3.11339,0.10789
22663116,2.20430,-0.20588
22691196,0.65494,-0.17559
22719280,0.00489,0.41076
22746280,0.00000,0.31233
22773320,0.00000,-0.20181
22801400,0.00000,-0.38797
22829480,0.00000,-0.28391
22857564,0.00000,-0.08443
22885680,0.13685,0.11262
22912716,0.76735,0.27115
22939764,1.49071,0.08423
22966792,1.58847,-0.24432
22994872,0.70381,-0.30152
23022956,0.03910,0.28358
23050000,0.01466,0.54778
23077044,0.02444,0.14072
23104072,0.25415,-0.11828
23132156,0.77224,-0.20080
23160236,1.41740,-0.23555
23188316,2.15054,-0.17177
23216404,2.77615,-0.10948
23244476,2.94721,-0.08989
23272564,2.81036,0.08164
23299596,2.79081,0.31168
23326636,3.04985,0.32133
23353680,3.11339,-0.00283
23381756,2.31672,-0.35106
23409844,2.34604,0.19776
23436880,2.05279,-0.03449
23464972,1.95992,-0.01225
23493040,2.60997,0.14035
23520080,3.59726,-0.05112
23548160,4.32551,-0.33698
23576236,4.56500,-0.33655
23604320,4.32063,-0.08484
23632392,4.19355,0.33323
23659436,4.82405,0.57081
23686480,4.99511,-0.01083
23714552,5.00000,-0.18804
23742636,5.00000,-0.10823
23770716,4.78006,-0.09165
23798800,3.66080,-0.23255
23826880,2.34604,0.08628
23853916,1.59824,0.44213
23880960,1.46139,0.33184
23907996,1.72043,-0.04832
23936080,2.15543,-0.33948
23964156,2.53177,-0.40745
23992240,2.71750,-0.26372
24020316,2.40958,-0.10448
24048396,2.19941,0.27635
24075444,2.25806,0.41087
24102476,2.37048,0.20214
24129512,2.09189,-0.12982
24157596,1.45161,-0.18597
24185676,0.93353,0.04663
24212716,0.81623,0.18965
24239756,0.99218,0.06843
24266800,1.19257,-0.15374
24294880,1.43695,-0.19219
24322956,1.76931,-0.10096
24351044,1.79374,-0.11670
24379120,1.62268,0.00792
24406164,1.66667,0.22818
24433196,1.77419,0.17747
24460240,1.98436,0.06764
24487276,2.18964,-0.05921
24515356,2.35582,-0.10755
24543436,2.31183,-0.12811
24571520,2.27273,0.00144
24598564,2.20919,0.05823
24625596,2.27273,0.09856
24652636,2.71261,0.12788
24679676,1.37830,-0.56994
24707752,1.00196,0.29565
24734808,0.17595,0.13567
24761796,0.00000,0.28202
24788840,0.00000,0.02310
24815880,0.00000,-0.21528
24844000,0.21994,-0.17189
24872084,0.69892,-0.07274
24900156,1.04106,-0.12178
24928236,1.12414,-0.09318
24956316,1.33920,0.13555
24983356,1.70088,0.20436
25010400,1.91593,0.05142
25037436,2.00880,-0.02156
25065524,1.96970,-0.02946
25093600,1.73509,-0.02810
25121672,0.94819,-0.10615
25149764,0.61584,0.23326
25176796,1.53959,0.46521
25203840,1.04106,-0.56369
25231916,0.00978,-0.45043
25259960,0.00000,0.36927
25287000,0.00000,0.20442
25314040,0.00000,-0.02540
25342120,0.00000,-0.11068
25370204,0.00000,-0.08645
25398328,0.06843,-0.00685
25426396,1.58358,0.42605
25453432,0.56207,-0.82591
25481520,0.01466,0.02971
25508520,0.00000,0.51107
25535568,0.00000,0.26132
25562604,0.00000,-0.01987
25590680,0.00000,-0.14722
25618760,0.00000,-0.14565
25646880,0.21505,-0.02445
25674964,2.83969,0.64238
25701988,4.23754,-0.60150
25730076,2.72727,-1.32150
25758156,0.24438,-0.10527
25786200,0.00000,1.64333
25813240,0.00000,0.90212
25840280,0.00000,-0.10707
25868364,0.00000,-0.56281
25896440,0.00000,-0.53666
25924524,0.00000,-0.29631
25952604,0.00000,-0.05005
25980680,0.00000,0.10495
26007756,0.94819,0.42538
26034796,4.37439,0.75118
26061840,4.98534,-1.18218
26089912,5.00000,-0.67891
26117996,5.00000,0.27607
26145040,5.00000,0.63033
26172076,5.00000,0.48534
26199120,5.00000,0.16941
26226156,4.98534,-0.09435
26254236,4.97556,-0.20942
26282320,4.61877,-0.30736
26310400,4.05181,-0.17080
26338488,3.64614,0.09118
26365520,3.55816,0.19433
26392560,4.86315,0.41334
26419596,3.20137,-1.05040
26447676,3.38221,0.36231
26474716,3.13783,0.17648
26501756,2.41935,-0.05613
26529840,1.00196,-0.13465
26557916,0.01955,0.29506
26584952,0.56207,0.62976
26612000,1.59824,0.00719
26639036,1.91593,-0.74533
26667124,0.23949,-1.03416
26695160,0.00000,0.53555
26722196,0.00000,0.63326
26749236,0.00000,0.22462
26776280,0.00000,-0.06768
26804364,0.00000,-0.16027
26832440,0.00000,-0.12874
26860524,0.00000,-0.05774
26888604,0.00000,0.00189
26915636,0.00000,0.03271
26942676,0.00000,0.03766
26969720,0.00000,0.02752
26996768,0.00000,0.01286
27023804,0.00000,0.00055
27050844,0.00000,-0.00661
27078956,2.38514,0.66732
27106000,4.96579,-0.17089
27134076,5.00000,-1.34706
27162156,5.00000,-0.25721
27190232,5.00000,0.53623
27217280,4.04203,0.38387
27244320,1.69599,0.08716
27271364,0.08798,0.64525
27298360,0.00000,0.73502
27325436,0.00489,-0.24505
27353476,0.00000,-0.75628
27381600,2.49756,0.04641
27408636,4.94624,-0.54779
27436716,5.00000,-1.27345
27464804,5.00000,-0.01177
27492876,4.99511,0.79813
27519916,5.00000,0.85166
27546956,5.00000,0.48813
27573996,5.00000,0.08007
27601040,5.00000,-0.18712
27629116,5.00000,-0.27874
27657196,5.00000,-0.24240
27685280,5.00000,-0.14754
27713364,5.00000,-0.05031
27741440,5.00000,0.01872
27768480,5.00000,0.05190
27795528,5.00000,0.05584
27822560,5.00000,0.04283
27849600,5.00000,0.02425
27876640,5.00000,0.00785
27903680,4.71652,-0.08320
27931764,3.71457,-0.18528
27959840,2.51222,0.07272
27986876,0.55718,0.03160
28013916,0.00489,0.65236
28040916,0.00000,0.25140
28067964,0.00000,-0.35336
28096040,0.00000,-0.49947
28124120,0.00000,-0.31911
28152244,0.08309,-0.03796
28180320,0.00978,0.06911
28207356,1.25611,0.55535
28234396,2.31672,0.01596
28261436,2.29228,-0.49869
28289516,1.97458,-0.13131
28317596,1.91593,0.34679
28344648,2.85924,0.59216
28371680,3.90029,0.04910
28398720,3.32356,-0.77169
28426796,0.41056,-0.84605
28454840,0.00000,1.15680
28481884,0.00000,0.76192
28508960,0.00489,-0.10154
28537040,2.57576,0.23499
28564076,4.87292,-0.75834
28592160,5.00000,-1.45217
28620240,4.99511,-0.22455
28648312,5.00000,0.66444
28675356,3.45064,0.35955
28702396,1.29032,0.47292
28729440,0.54252,0.97461
28756476,1.32454,0.59926
28783516,2.55132,-0.45537
28811596,2.86901,-1.26960
28839676,3.34800,-0.68417
28867764,4.48192,0.09712
28894796,4.97556,0.01971
28921836,4.99511,0.11527
28948876,4.95112,0.35724
28975916,4.49169,0.26030
29002956,4.01271,0.24406
29029992,3.70968,0.16956
29057040,1.98436,-0.45803
29085116,2.45846,0.56621
29112160,2.67840,-0.11342
29140236,2.63930,-0.48565
29168316,2.38025,-0.38054
29196404,1.67644,-0.16918
29224476,1.38807,0.31829
29251516,1.79374,0.46872
29278556,2.54643,0.15048
29305596,3.13783,-0.25474
29333680,3.50929,-0.31449
29361752,3.56305,-0.17204
29389840,3.64125,0.12614
29416876,3.04985,0.02833
29443912,0.54741,-0.32101
29471960,0.00000,0.95249
29499008,0.00000,0.54943
29526048,0.00000,-0.24744
29554120,0.00000,-0.55344
29582200,0.00000,-0.44347
29610320,1.70577,0.30235
29637360,1.61290,-0.62182
29665444,0.15640,-0.49205
29693480,0.00000,0.81465
29720516,0.00000,0.66656
29747560,0.00000,0.15852
29774596,0.00000,-0.16367
29802680,0.00000,-0.24789
29830760,0.00000,-0.18935
29858848,0.00000,-0.08748
29886924,0.00000,-0.00272
29915000,0.00000,0.04341
29942048,0.00000,0.05413
29969080,0.00000,0.04293
29996124,0.00000,0.02374
30023164,0.00000,0.00622
30050236,0.00978,-0.00238
30078312,0.61584,0.15826
30105348,1.09482,-0.10284
30133444,0.91398,-0.33464
30161512,0.26393,-0.15161
30189604,0.08798,0.34827
30216636,0.82600,0.50731
30243676,1.36852,-0.08919
30271756,1.55914,-0.38847
30299832,0.96285,-0.41619
30327924,0.21994,0.03961
30354956,0.38612,0.57090
30381996,0.82600,0.27515
30409036,1.38319,-0.10904
30437116,2.04790,-0.25587
30465200,2.59042,-0.27318
30493272,2.51222,-0.27326
30521360,4.11535,0.58815
30548396,4.98534,-0.08459
30576476,4.99022,-0.37681
30604556,5.00000,0.05360
30631592,5.00000,0.26748
30658640,5.00000,0.22785
30685672,5.00000,0.08106
30712712,5.00000,-0.04908
30740804,4.98534,-0.11635
30768876,5.00000,-0.10238
30796964,5.00000,-0.07879
30825044,5.00000,-0.03421
30853132,5.00000,0.00351
30880164,4.99511,0.02304
30907200,5.00000,0.03267
30934236,5.00000,0.02317
30961280,5.00000,0.01370
30988332,5.00000,0.00546
31015364,5.00000,-0.00027
31043444,4.99511,-0.00464
31071524,4.99022,-0.00348
31099600,4.04692,-0.26798
31127688,2.94233,0.03925
31154716,2.43402,0.42024
31181756,2.39980,0.28911
31208796,2.42913,-0.11771
31236876,2.55621,-0.27617
31264960,3.04497,-0.15343
31293036,3.81720,-0.07216
31321120,4.44282,-0.13921
31349196,4.65787,-0.13966
31377280,4.78006,0.10092
31404312,4.76051,0.20569
31431356,4.67253,0.20594
31458400,4.81427,0.20199
31485436,4.96090,0.00701
31512472,4.98045,-0.15604
31540556,4.88759,-0.16213
31568636,4.74096,-0.07267
31596724,4.64321,0.02909
31623760,4.60411,0.05545
31650796,4.26197,-0.07113
31678876,4.08602,0.06231
31705920,3.97849,0.06367
31732960,3.89052,0.00285
31759996,4.93157,0.28138
31787040,3.56305,-0.82652
31815116,3.80254,0.37133
31842156,3.98827,0.24325
31869200,4.00293,-0.03785
31897276,4.01271,-0.07832
31925364,4.05670,-0.03268
31953444,3.98338,-0.04095
31981524,3.91007,0.01704
32008564,3.75367,0.01777
32035604,3.39687,-0.01712
32063688,3.18182,0.09030
32090716,3.06452,0.07336
32117764,2.90811,-0.03225
32145840,2.86901,-0.02867
32173920,2.89345,-0.04115
32202000,2.97165,-0.04168
32230076,3.13294,-0.01720
32258164,3.14272,-0.06558
32286240,3.21114,0.02365
32313284,3.19159,0.02351
32340324,3.16227,0.04658
32367360,3.13294,0.04607
32394408,3.10850,0.02517
32421440,2.99609,-0.02681
32449524,2.97165,0.01427
32476564,2.89345,-0.02381
32504644,2.89834,0.00422
32531680,2.81036,-0.04312
32559764,2.87879,0.02954
32586808,2.66373,-0.08530
32614880,1.93060,-0.14433
32642956,1.03128,0.05545
32669996,0.41544,0.27678
32697040,1.73509,0.67804
32724080,0.53763,-0.92434
32752152,1.17791,0.15302
32779196,1.85239,0.02042
32806236,2.21408,-0.22969
32834316,2.44868,-0.13047
32862404,2.57576,0.04156
32889432,2.72727,0.17729
32916476,2.85435,0.15835
32943520,2.77615,0.02939
32970556,2.55132,-0.01180
32998636,2.25806,0.00581
33025676,2.06256,0.04996
33052728,1.49560,-0.11507
33080800,0.57185,-0.12336
33108876,0.01466,0.16627
33135880,0.00000,0.23213
33162920,0.00000,-0.07990
33191008,0.00000,-0.21848
33219084,0.00000,-0.16998
33247164,0.00000,-0.05243
33275244,0.00000,0.04477
33302312,0.71848,0.29227
33329356,1.69110,0.09126
33356388,2.02835,-0.32908
33384488,1.95992,-0.22878
33412552,0.61584,-0.23698
33440640,0.00489,0.57336
33467644,0.00000,0.60621
33494720,0.03421,0.04942
33521764,1.09482,-0.00973
33549836,0.53275,-0.89443
33577880,0.00000,-0.31241
33605960,0.00000,0.32106
33633000,0.00000,0.26076
33660044,0.00000,0.09410
33687112,0.28837,0.07009
33714152,3.87586,0.86313
33741192,4.98534,-1.11590
33769272,5.00000,-0.98595
33797356,5.00000,0.11857
33824396,5.00000,0.65252
33851444,5.00000,0.59081
33878476,5.00000,0.27359
33905516,5.00000,-0.02730
33933592,5.00000,-0.19443
33961676,5.00000,-0.22525
33989764,4.97556,-0.17704
34017844,3.33822,-0.54070
34045924,0.22972,-0.27483
34073960,0.00000,1.39626
34101000,0.00000,0.51372
34128040,0.00000,-0.38939
34156120,0.00000,-0.63342
34184208,0.00000,-0.43472
34212324,0.39589,-0.00681
34240396,3.40176,0.81948
34267432,4.96579,-0.53547
34295512,5.00000,-0.83446
34323604,5.00000,0.13805
34350640,4.87781,0.61078
34377676,5.00000,0.65617
34404716,5.00000,0.22585
34431752,5.00000,-0.08085
34459836,5.00000,-0.22718
34487916,5.00000,-0.23849
34516004,5.00000,-0.17148
34544088,1.34409,-1.11829
34572160,0.01955,0.98893
34599160,0.00000,1.11672
34626200,0.00000,0.00736
34653244,0.00000,-0.59052
34681320,0.00000,-0.57869
34709404,0.00000,-0.28516
34737484,0.00000,0.01100
34764520,0.00000,0.18244
34791564,0.00000,0.21964
34818600,0.00000,0.16943
34845640,0.00000,0.08755
34872684,0.00000,0.01425
34899724,0.00000,-0.03176
34927800,0.00000,-0.04892
34955876,0.00000,-0.04518
34983964,0.00000,-0.03102
35012040,0.00000,-0.01512
35040124,0.00000,-0.00266
35068232,1.16813,0.33569
35095276,4.94624,0.63976
35122332,4.99511,-1.58512
35150392,5.00000,-0.53584
35178480,5.00000,0.43984
35205520,5.00000,0.69620
35232556,5.00000,0.47873
35259596,5.00000,0.13703
35286636,5.00000,-0.11807
35314724,4.99511,-0.22632
35342796,5.00000,-0.20830
35370884,4.99511,-0.13892
35398964,5.00000,-0.04972
35427044,5.00000,0.01036
35454088,5.00000,0.04353
35481120,5.00000,0.05052
35508160,5.00000,0.04069
35535200,5.00000,0.02431
35562240,5.00000,0.00900
35589284,5.00000,-0.00149
35617364,4.99511,-0.00795
35645448,5.00000,-0.00414
35673520,5.00000,-0.00675
35701604,5.00000,-0.00441
35729684,5.00000,-0.00140
35757764,5.00000,0.00055
35784812,5.00000,0.00137
35811844,5.00000,0.00136
35838872,5.00000,0.00091
35865936,5.00000,0.00043
35892972,5.00000,0.00004
35920016,5.00000,-0.00016
35948088,5.00000,-0.00022
35976168,5.00000,-0.00019
36004260,4.98045,-0.00566
36032328,4.60899,-0.09800
36060404,4.17889,0.02059
36087440,3.60215,0.05624
36114484,2.60997,-0.02549
36142556,1.46139,0.05085
36169592,0.80645,0.25656
36196636,0.71848,0.18484
36223672,0.76735,-0.15334
36251764,0.47410,-0.41518
36279840,0.02933,-0.24969
36307880,0.00000,0.15130
36334920,0.00000,0.14214
36361964,0.00000,0.06294
36389008,0.00000,0.01944
36416076,0.13685,0.04680
36443116,2.29228,0.56793
36470148,4.18866,-0.28495
36498240,4.48680,-0.95906
36526320,3.50440,-0.51919
36554396,2.96188,0.63554
36581448,1.93548,0.61519
36608476,0.20528,0.24588
36635480,0.00000,0.63085
36662560,0.21505,0.02239
36689600,1.86706,-0.15298
36717684,3.85630,-0.65195
36745756,4.98045,-0.99166
36773836,4.99511,-0.62275
36801916,4.47214,0.22141
36828956,3.02542,0.55487
36856004,1.58358,0.84235
36883032,0.89932,0.81227
36910072,1.03128,0.30274
36937120,0.82600,-0.58326
36965196,0.35191,-0.76101
36993240,0.00000,-0.36871
37021320,0.00000,0.03722
37048368,0.00000,0.07888
37075400,0.00000,0.07740
37102476,0.23460,0.14779
37129520,1.41740,0.32635
37156556,4.09091,0.33959
37183600,5.00000,-0.88071
37211684,4.99511,-0.63999
37239764,4.99511,0.24415
37266800,3.97849,0.30095
37293836,3.84653,0.80363
37320880,4.16911,0.46672
37347916,4.79961,-0.07985
37375992,4.99022,-0.59758
37404076,4.99511,-0.48540
37432160,4.74585,-0.20423
37460244,4.08113,0.00182
37487284,3.47996,0.28410
37514328,2.88856,0.28018
37541356,2.60997,0.22277
37568396,2.79081,0.09200
37595436,3.31378,-0.11337
37623516,3.60704,-0.37182
37651604,3.43597,-0.36523
37679676,2.30205,-0.25832
37707756,0.35679,0.08059
37734760,0.00000,0.99412
37761800,0.00000,0.46298
37788840,0.00000,-0.23437
37816920,0.00000,-0.47421
37845008,0.00000,-0.36583
37873120,0.92375,0.12071
37900164,1.76931,-0.06247
37928240,1.84262,-0.30975
37956316,1.96970,0.08112
37983360,1.20723,0.02282
38010400,0.20528,0.26153
38037436,0.50342,0.73606
38064480,4.56989,1.16685
38091512,5.00000,-1.70921
38119600,5.00000,-1.13254
38147672,3.44086,-0.40602
38175764,0.42033,0.31582
38202760,0.00000,1.83106
38229800,0.00000,0.82494
38256880,0.39101,-0.25114
38284960,1.89150,-0.51773
38313044,0.49365,-1.67172
38341080,0.00000,-0.11860
38369160,0.00000,0.60257
38396200,0.00000,0.44133
38423240,0.00000,0.16854
38450288,0.00000,-0.00329
38478360,0.00000,-0.06594
38506476,0.43011,0.05819
38533512,4.15933,0.85797
38560548,5.00000,-1.24225
38588636,4.99022,-0.88343
38616720,4.99511,0.21329
38643768,4.99511,0.67196
38670796,5.00000,0.56607
38697836,5.00000,0.23537
38724872,5.00000,-0.05443
38752952,5.00000,-0.20479
38781044,5.00000,-0.22291
38809116,5.00000,-0.16168
38837204,4.91202,-0.10164
38865280,3.01564,-0.50988
38893364,0.22483,-0.02869
38921400,0.00000,1.33226
38948440,0.00000,0.42688
38975476,0.00000,-0.42915
39003560,0.00000,-0.63508
39031680,0.00978,-0.41822
39059760,0.66960,0.07768
39086800,1.20235,0.02465
39113844,1.20235,-0.09234
39141908,1.22678,0.16468
39168952,1.50049,0.32780
39195996,1.51515,0.09400
39223040,1.75953,0.09285
39250084,2.03812,-0.02577
39278156,2.28739,-0.11589
39306232,2.39492,-0.14764
39334316,2.60997,-0.01714
39362396,2.81525,0.00894
39389432,3.10362,0.03782
39416480,3.38221,0.00273
39443520,3.58749,-0.03090
39471596,3.60215,-0.05341
39499680,3.23069,-0.07115
39527760,2.71261,0.06294
39554796,2.24340,0.16997
39581844,1.82307,0.12202
39608880,1.56892,0.04693
39635920,1.48583,-0.04586
39664000,1.47116,-0.13368
39692080,1.48583,-0.14130
39720160,1.43695,-0.10530
39748232,1.82307,0.11931
39775280,2.42424,0.08459
39802316,2.94233,-0.07302
39830400,3.48974,-0.05464
39858476,3.92473,-0.03446
39886556,4.92180,0.20993
39913600,3.88074,-0.54582
39941676,4.45259,0.56762
39968716,4.64809,0.18612
39995756,4.74096,-0.05939
40023832,4.59433,-0.17006
40051916,4.32063,-0.09714
40079996,4.06647,0.02645
40107044,3.80254,0.04770
40134084,3.47019,0.00399
40161120,3.12317,-0.00607
40189200,2.85435,0.01496
40216240,2.86413,0.06117
40243284,2.68817,-0.11019
40271356,2.36559,-0.11885
40299436,1.93060,-0.02892
40327516,1.02151,-0.05540
40355600,0.15152,0.15166
40382640,0.01955,0.38304
40409676,0.00978,0.05061
40436680,0.00000,-0.21453
40464760,0.00000,-0.23590
40492840,0.00000,-0.12990
40520924,0.00000,-0.00746
40549000,0.00000,0.07009
40576044,0.00000,0.09177
40603080,0.00000,0.07410
40630152,0.41544,0.15807
40657192,1.35875,0.11992
40684236,1.94526,-0.26705
40712324,2.17498,-0.29766
40740404,2.37537,-0.01377
40768480,2.53666,0.14876
40795520,3.06452,0.27621
40822556,3.12805,-0.06235
40850632,2.26784,-0.29537
40878716,1.73021,0.18525
40905764,0.31281,-0.03611
40933804,0.00000,0.46867
40960840,0.00000,0.15468
40987880,0.00000,-0.26308
41016000,0.18084,-0.30658
41044084,1.92571,0.19804
41071116,3.09873,-0.39845
41099196,3.20626,-0.59504
41127280,2.99609,-0.00411
41155360,2.41935,0.38016
41182404,1.32454,0.39822
41209436,0.17107,0.40170
41236440,0.00000,0.49852
41263480,0.00000,-0.06847
41291560,0.00000,-0.46071
41319640,0.00000,-0.46404
41347720,0.00000,-0.25732
41375808,0.00000,-0.03159
41403880,0.00000,0.11311
41430920,0.00000,0.15966
41457956,0.00000,0.13589
41485000,0.00000,0.08097
41512080,1.47116,0.44306
41539112,3.34800,-0.03221
41567196,4.34995,-0.68696
41595276,4.55034,-0.54614
41623360,4.34018,0.03493
41650404,3.96383,0.44373
41677436,3.68524,0.52585
41704484,3.64614,0.33270
41731516,3.33822,-0.11859
41759596,3.69013,-0.03516
41787676,2.18475,-0.78143
41815756,1.65200,0.15459
41842800,2.33627,0.55183
41869836,3.34311,0.04655
41896876,3.88074,-0.50505
41924956,3.70479,-0.52295
41953040,3.46041,0.02379
41980088,3.49951,0.42734
42007116,3.68035,0.36113
42034156,3.42620,-0.02198
42062236,2.84457,-0.12421
42090316,2.77615,0.16125
42117360,2.46334,-0.05680
42145440,2.13099,-0.09292
42173524,1.71554,-0.08676
42201600,0.30303,-0.30513
42229640,0.00000,0.41938
42256680,0.00000,0.25574
42283720,0.00000,-0.11599
42311808,0.00000,-0.24135
42339920,0.01955,-0.16602
42368008,1.80841,0.45651
42395036,3.77810,-0.06145
42423112,4.53568,-0.71682
42451196,4.29619,-0.45122
42479284,3.52884,0.21409
42506332,2.79570,0.68561
42533360,1.98925,0.55006
42560396,1.64223,0.34203
42587440,1.87195,0.02262
42614480,2.27761,-0.38047
42642564,2.58065,-0.54763
42670640,2.57576,-0.43478
42698720,1.80352,-0.26317
42726796,2.72239,0.74444
42753836,1.88661,-0.21517
42781920,3.06452,0.62027
42808956,4.42326,0.10845
42836000,4.98045,-0.55230
42864076,4.99511,-0.43360
42892156,5.00000,0.08341
42919196,4.99511,0.31119
42946236,4.99022,0.26791
42973280,4.84360,0.07243
43000312,4.38905,-0.10237
43028396,3.83675,-0.06541
43056476,3.60704,0.09345
43083520,3.49462,0.00876
43110564,3.18182,-0.17034
43138636,2.64418,-0.17376
43166712,2.25318,0.04076
43193760,1.96481,0.10454
43220796,1.83284,0.08561
43247836,2.08700,0.08868
43274880,2.35093,-0.09134
43302964,2.60020,-0.14260
43331040,2.71750,-0.11313
43359120,2.77615,0.00556
43386160,2.80547,0.09254
43413196,2.81036,0.10610
43440244,2.91300,0.10497
43467280,2.79570,-0.04449
43495360,2.37048,-0.10785
43523444,1.88661,0.01182
43550480,2.14076,0.28974
43577532,2.45846,0.00710
43604560,2.59531,-0.24306
43632648,2.54643,-0.22635
43660716,2.11144,-0.13485
43688796,2.76149,0.43783
43715836,1.12414,-0.53787
43743916,1.50538,0.65130
43770964,1.75953,0.19731
43797996,1.87195,-0.20392
43826076,1.74487,-0.30166
43854156,1.63245,-0.10007
43882236,1.65200,0.08266
43909284,1.66178,0.07671
43936320,1.67155,0.04179
43963360,1.50538,-0.03591
43991444,1.43695,0.04284
44018484,1.41251,0.04155
44045516,1.50049,0.02823
44072560,1.53959,-0.05213
44100648,1.49560,-0.07540
44128720,1.37830,-0.03700
44156800,1.18280,0.00782
44183840,1.18280,0.11207
44210876,1.22678,0.04806
44237928,1.38807,0.00246
44264964,1.73021,-0.01343
44293040,2.20919,-0.04519
44321120,2.53177,-0.13440
44349200,2.65396,-0.10364
44377280,2.65885,0.02184
44404316,2.67351,0.13362
44431356,2.54643,0.08526
44458396,2.38514,0.06143
44485436,2.34604,0.06514
44512480,2.31672,-0.02036
44540560,2.14076,-0.11567
44568648,1.94037,-0.06836
44596728,1.74976,-0.00368
44624800,2.35582,0.24552
44651848,1.47605,-0.47592
44679912,1.06549,0.07708
44706960,1.27077,0.36442
44733996,1.35875,0.03164
44761036,1.30499,-0.16132
44789116,1.44184,-0.05418
44817200,1.55425,-0.04639
44845280,1.73998,0.00495
44872320,1.79863,-0.02752
44900408,1.65689,-0.03194
44928480,1.38807,0.03321
44955520,1.37341,0.17684
44982560,1.44184,0.08742
45009600,1.63245,-0.01084
45037684,1.66178,-0.15110
45065760,1.66667,-0.09829
45093844,1.74487,0.00963
45120884,1.78886,0.01994
45147920,1.87195,0.03942
45174964,1.84751,-0.00890
45203040,1.87683,0.03030
45230088,1.92082,0.02372
45257120,1.94526,-0.00540
45285200,1.99902,-0.00310
45313280,2.14565,0.01394
45340316,2.41447,0.01262
45367364,2.48778,-0.09812
45395436,2.69795,0.00780
45422476,2.82991,-0.00697
45450564,2.69306,-0.05977
45478636,2.54643,0.04861
45505684,2.54643,0.13140
45532724,2.38514,0.00050
45559760,3.86119,0.45007
45586800,2.38025,-1.00337
45614880,2.77615,0.37177
45641928,2.34604,0.02681
45668964,0.51320,-0.33044
45697048,0.00489,0.59083
45724040,0.00000,0.42218
45751080,0.00000,-0.13517
45779160,0.00000,-0.36637
45807240,0.00000,-0.29906
45835328,0.00000,-0.11906
45863404,0.00000,0.03695
45890440,0.00000,0.11583
45917476,0.00000,0.12271
45944520,0.00000,0.08729
45971568,0.00000,0.04005
45998608,0.00000,0.00112
46025640,0.00000,-0.02136
46053756,0.03421,-0.01839
46081832,4.02737,1.09487
46108880,4.99022,-1.24628
46136952,5.00000,-1.00520
46165048,5.00000,0.13561
46192084,4.99511,0.66771
46219116,5.00000,0.60141
46246160,4.99511,0.27129
46273196,5.00000,-0.02824
46301276,5.00000,-0.19889
46329356,5.00000,-0.22791
46357436,5.00000,-0.17039
46385520,5.00000,-0.08454
46413604,5.00000,-0.01031
46441684,4.99511,0.03342
46468724,4.46237,-0.09869
46496808,2.60997,-0.27898
46524876,1.77419,0.57389
46551916,1.98436,0.64608
46578956,2.16520,-0.10527
46607036,2.86901,-0.30339
46635120,4.01760,-0.31352
46663196,4.70674,-0.46988
46691276,4.57478,-0.35995
46719360,3.90029,0.08522
46746396,3.41153,0.57810
46773440,3.15249,0.56037
46800480,2.97654,0.20283
46827512,2.51711,-0.20590
46855600,2.17498,-0.19497
46883676,2.02346,-0.11073
46911756,2.34604,0.00988
46938800,3.35288,0.05880
46965844,3.95894,-0.32457
46993916,3.91496,-0.37882
47022000,3.89052,0.08311
47049036,3.59238,0.22958
47076076,3.47996,0.35533
47103120,4.20821,0.42627
47130156,4.97556,-0.06484
47158232,5.00000,-0.53233
47186312,4.92180,-0.25039
47214396,2.83969,-0.50203
47242476,1.50049,0.57162
47269516,3.26002,1.45617
47296564,3.58260,-0.46491
47324636,4.90714,-0.45566
47352716,4.99511,-0.87485
47380804,4.99022,-0.24017
47408880,4.93157,0.26817
47435924,4.99511,0.45933
47462952,5.00000,0.28910
47489996,4.99511,0.09599
47517032,4.26686,-0.24415
47545116,1.94526,-0.48718
47573204,0.24927,0.40056
47600236,0.04399,0.82207
47627280,0.71359,0.22612
47654316,2.38514,-0.29847
47682392,4.31085,-0.73101
47710476,4.97556,-1.03449
47738556,4.98534,-0.33370
47766640,4.74096,0.45621
47793676,4.47214,0.77822
47820716,3.90518,0.52091
47847756,3.37243,0.27228
47874796,3.18182,0.08746
47901840,3.60215,-0.05616
47929916,4.45748,-0.27414
47957996,4.97556,-0.56285
47986076,4.97067,-0.47010
48014156,4.55034,-0.08839
48042240,3.68524,0.20924
48069276,3.94428,0.76873
48096324,2.63441,-0.17963
48124400,2.03812,0.19902
48151436,2.04301,0.23087
48178476,1.80352,-0.22709
48206556,1.83284,-0.21469
48234644,1.80352,-0.22005
48262720,1.69110,-0.12742
48290796,0.76246,-0.20618
48318876,0.01466,0.23479
48345876,0.00000,0.51312
48372920,0.00000,0.11731
48399960,0.00000,-0.16129
48428048,0.00000,-0.21189
48456120,0.00000,-0.13359
48484200,0.00000,-0.03106
48512288,0.00000,0.03943
48539320,0.00000,0.06523
48566364,0.00000,0.05759
48593432,0.21505,0.09538
48620472,4.10557,1.03253
48647512,4.98534,-1.25133
48675600,4.99511,-0.95190
48703684,5.00000,0.15539
48730716,5.00000,0.65212
48757756,5.00000,0.57069
48784796,5.00000,0.25218
48811832,5.00000,-0.04047
48839912,5.00000,-0.19783
48867996,4.78006,-0.28419
48896088,1.84751,-0.91263
48924160,0.05376,0.54739
48951160,0.00000,1.10579
48978208,0.00000,0.09889
49005240,0.00000,-0.53234
49033324,0.00000,-0.56478
49061400,0.00000,-0.29465
49089488,0.00000,-0.00293
49117560,0.00000,0.17349
49144596,0.00000,0.21743
49171640,0.00000,0.17189
49198680,0.00000,0.09177
49225724,0.00000,0.01804
49252800,0.19062,0.02461
49279832,2.94721,0.66176
49306876,4.94135,-0.54508
49334956,5.00000,-1.19302
49363044,4.99511,-0.13205
49391116,5.00000,0.56642
49418156,5.00000,0.62154
49445196,4.61388,0.23714
49472232,3.04008,-0.26561
49500320,2.11144,0.22784
49527356,2.39492,0.43361
49554396,2.55621,-0.26471
49582476,2.70772,-0.51070
49610552,3.02053,-0.33047
49638636,3.07429,-0.20871
49666716,2.60997,-0.08044
49694804,2.69306,0.41541
49721836,3.23558,0.42570
49748880,3.45064,-0.04135
49776964,4.63343,0.15467
49803992,3.79765,-0.73759
49832080,4.96579,0.48559
49859112,5.00000,-0.16166
49887196,4.99511,-0.06336
49915272,4.08113,-0.17435
49943356,2.36559,-0.03421
49971432,1.14370,0.50114
49998480,0.65494,0.52338
50025520,0.74291,0.09987
50052556,1.43206,-0.25818
50080636,2.61486,-0.42429
50108716,3.66569,-0.53314
50136796,3.80254,-0.51700
50164884,3.46041,0.01117
50191920,2.93744,0.47515
50218956,2.59042,0.63407
50245996,2.56109,0.44238
50273036,2.63441,0.02725
50300084,2.83480,-0.22587
50328160,2.35582,-0.51370
50356244,1.75953,-0.21404
50384320,1.43206,0.15786
50411360,1.43695,0.24088
50438400,1.96481,0.17451
50465440,2.62463,-0.10265
50493520,2.82991,-0.36476
50521592,2.47312,-0.28352
50549680,1.83773,0.06070
50576716,1.82307,0.50412
50603752,2.39980,0.41335
50630800,3.19159,-0.01920
50658872,3.41153,-0.47804
50686956,2.93744,-0.44925
50715036,3.45064,0.34540
50742076,1.56403,-0.47371
50770160,1.91105,0.85546
50797200,2.38514,0.35819
50824252,3.03030,-0.16139
50852320,3.70479,-0.38783
50880400,4.71652,-0.22227
50908488,4.99511,-0.36036
50936556,5.00000,-0.04505
50964640,5.00000,0.28430
50991672,5.00000,0.33132
51018716,4.81427,0.14514
51045752,3.63148,-0.23333
51073836,2.39003,0.04210
51100880,1.74487,0.34126
51127920,1.60802,0.18705
51154960,1.91105,-0.10726
51183036,2.35093,-0.35836
51211116,2.86413,-0.34810
51239196,3.52395,-0.14394
51267276,4.12512,-0.01513
51295360,4.56989,0.07183
51322396,4.93646,0.16457
51349436,4.99022,0.11161
51376476,4.99511,0.15676
51403516,5.00000,0.13177
51430560,5.00000,0.03886
51457592,5.00000,-0.04764
51485676,5.00000,-0.09216
51513760,4.60899,-0.20304
51541844,4.14956,-0.04799
51569924,3.99804,0.16348
51596960,4.01760,0.10844
51624004,4.60411,0.10937
51651040,3.34311,-0.68129
51679116,3.66080,0.39977
51706156,3.69501,0.12290
51733200,3.49951,-0.09589
51761280,3.06452,-0.11146
51789360,2.31183,-0.04959
51817440,1.41740,0.08671
51844476,1.08504,0.32153
51871512,1.11437,0.15760
51898560,1.07038,-0.18843
51926636,0.90420,-0.28518
51954724,0.21017,-0.29040
51982760,0.00000,0.19183
52009800,0.00000,0.23149
52036840,0.00000,0.04697
52063916,0.34213,0.03972
52090960,0.86022,-0.04775
52119036,1.32942,-0.14808
52147120,1.78886,-0.09996
52175196,2.44379,0.05008
52202236,3.21603,0.07479
52229284,3.85630,-0.02072
52257356,4.08602,-0.10928
52285436,4.05181,-0.00177
52313516,3.95406,0.14733
52340552,3.88074,0.17495
52367596,3.86119,0.09159
52394636,4.04692,0.02178
52421680,4.15445,-0.14550
52449756,3.74389,-0.29772
52477844,3.63636,0.04633
52504880,3.60704,0.10752
52531920,3.67058,0.06361
52558964,4.74585,0.26465
52585996,3.06452,-0.92291
52614080,3.36266,0.52695
52641120,3.45064,0.27033
52668160,3.35777,-0.04965
52696248,3.10362,-0.14016
52724320,2.87390,-0.03759
52752408,2.60997,0.00953
52779440,2.07722,-0.04533
52807516,0.87488,-0.14258
52835600,0.02444,0.23354
52862600,0.00000,0.41022
52889688,0.08309,-0.01913
52917756,0.41544,-0.22372
52945836,0.62072,-0.33897
52973912,0.51320,-0.26669
53002000,0.24927,-0.00450
53030084,0.01955,0.22513
53057116,0.09775,0.32370
53084152,0.68426,0.25289
53111196,1.45161,-0.04766
53139276,2.13099,-0.27334
53167356,2.91300,-0.18370
53195436,3.09873,-0.24506
53223524,2.09189,-0.26102
53251596,0.23460,0.09685
53278600,0.00000,1.03290
53305640,0.00000,0.42927
53332680,0.00000,-0.25975
53360764,0.00000,-0.49389
53388876,0.41544,-0.26866
53415940,0.86999,-0.18815
53445040,0.91887,-0.19386
53473116,1.14858,0.13239
53500152,1.08993,0.12681
53527196,1.41251,0.30028
53554244,1.08504,-0.05946
53582320,2.69306,0.58115
53609352,4.06647,-0.16510
53637444,4.74096,-0.62536
53665516,4.75073,-0.43602
53693604,4.57967,0.10503
53720636,4.43304,0.41240
53747672,4.21310,0.32932
53774716,3.92473,0.12618
53801756,3.43597,-0.08072
53829836,3.10850,-0.04860
53857924,2.97654,-0.04371
53886004,2.98631,-0.09063
53914076,2.98143,-0.14925
53942156,2.84946,-0.14060
53970244,1.99902,-0.21339
53998316,0.52786,-0.03357
54026404,0.00978,0.60334
54053400,0.00000,0.41303
54080480,0.03421,-0.10803
54108560,0.36657,-0.25712
54136636,0.93353,-0.24732
54164712,1.24145,-0.28780
54192792,1.05572,-0.19745
54220880,0.79668,0.14633
54247916,0.79179,0.38227
54274952,0.77713,0.22661
54301996,0.63050,0.00338
54329036,0.83578,0.04117
54356080,0.84555,-0.15696
54384156,0.64516,-0.19098
54412240,0.57674,-0.00025
54440316,0.40078,0.01141
54467356,1.27077,0.33915
54494400,0.53275,-0.50991
54522476,0.59629,0.13170
54549524,0.89443,0.21044
54576560,0.97263,-0.04248
54604636,0.99707,-0.07909
54632716,1.30499,0.05842
54659756,1.44184,-0.05602
54687840,1.53470,-0.04099
54715916,1.83284,0.07233
54742956,2.20919,0.04079
54769992,2.51222,-0.04884
54798076,3.01564,0.01964
54825124,3.38221,-0.06241
54853192,3.37732,-0.12765
54881276,3.42620,0.06853
54908316,3.46530,0.11988
54935360,2.99120,-0.06417
54963436,0.87977,-0.40037
54991516,0.00978,0.60058
55018528,0.00000,0.58685
55045560,0.00000,-0.12203
55073640,0.00000,-0.45796
55101724,0.00000,-0.39910
55129804,0.00000,-0.17498
55157888,0.00000,0.03154
55184920,0.00000,0.14302
55211956,0.00000,0.16011
55239000,0.00000,0.11880
55266040,0.00000,0.05861
55293092,0.00000,0.00685
55320124,0.00000,-0.02449
55348200,0.00000,-0.03530
55376276,0.00000,-0.03170
55404360,0.00000,-0.02122
55432444,0.00000,-0.00992
55460524,0.00000,-0.00130
55488608,0.00000,0.00355
55515640,0.00000,0.00508
55542676,0.00000,0.00445
55569716,0.00000,0.00287
55596760,0.00000,0.00125
55623808,0.00000,0.00006
55650840,0.00000,-0.00058
55678916,0.00000,-0.00074
55706996,0.00000,-0.00062
55735080,0.00000,-0.00038
55763200,1.41740,0.40163
55790236,4.82893,0.43530
55817280,5.00000,-1.45933
55845364,4.99511,-0.51153
55873440,5.00000,0.43390
55900488,5.00000,0.67814
55927516,5.00000,0.46505
55954560,5.00000,0.13147
55981592,5.00000,-0.11739
56009676,5.00000,-0.22120
56037756,5.00000,-0.20753
56065840,5.00000,-0.13361
56093924,5.00000,-0.05041
56122004,5.00000,0.01196
56149048,5.00000,0.04394
56176080,5.00000,0.04976
56203120,5.00000,0.03953
56230160,5.00000,0.02341
56257200,5.00000,0.00853
56284248,5.00000,-0.00155
56312320,4.63832,-0.10891
56340404,4.95601,0.21863
56367440,4.47214,-0.20365
56395520,3.30401,-0.23001
56423600,3.04985,0.41227
56450636,3.55327,0.39786
56477676,4.69208,0.04026
56504712,5.00000,-0.64723
56532792,5.00000,-0.43945
56560876,5.00000,0.04332
56587916,5.00000,0.27751
56614960,5.00000,0.26827
56641992,5.00000,0.14691
56669036,4.99511,0.01983
56696076,4.99022,-0.05717
56724156,4.60411,-0.18982
56752244,4.06647,-0.07798
56780320,3.61681,0.09284
56807356,3.51417,0.18287
56834396,2.68817,-0.21454
56862472,1.24145,-0.22457
56890560,0.19550,0.24519
56917596,0.01466,0.44595
56944600,0.00000,0.00861
56971640,0.00000,-0.30127
56999720,0.00000,-0.30445
57027804,0.00000,-0.14441
57055884,0.00000,0.02153
57082924,0.00000,0.11640
57109996,0.40078,0.24677
57137040,1.43695,0.24274
57164072,1.81329,-0.29819
57192156,3.18671,0.11443
57219200,4.18377,-0.18145
57247280,4.89247,-0.19979
57275352,5.00000,-0.13625
57303440,5.00000,0.18010
57330476,5.00000,0.30653
57357512,5.00000,0.20784
57384552,4.40860,-0.12973
57412640,2.57576,-0.38705
57440716,0.95797,0.18680
57467756,0.07820,0.48877
57494796,0.34702,0.37320
57521832,0.94819,-0.26721
57549924,1.69110,-0.57834
57577996,3.07429,-0.30889
57606076,4.45259,-0.23672
57634156,4.99022,-0.28629
57662232,5.00000,0.07313
57689280,5.00000,0.50185
57716312,5.00000,0.51858
57743356,5.00000,0.27765
57770396,4.60899,-0.10276
57798476,3.46530,-0.34008
57826560,2.53666,0.01744
57853604,2.48289,0.31547
57880648,2.91789,0.05307
57907680,2.67351,-0.53209
57935756,2.22874,-0.36912
57963844,1.95992,0.05284
57990876,3.17693,0.60187
58017920,1.08504,-0.91066
58045996,0.30303,0.39607
58073036,1.18280,0.95052
58100072,0.89932,-0.27501
58128156,0.01466,-0.52482
58156200,0.00000,0.13735
58183240,0.00000,0.07062
58210280,0.00000,-0.04923
58238360,0.00000,-0.07475
58266444,0.00000,-0.03779
58294524,0.00000,0.00915
58321564,0.00000,0.03732
58348640,0.12219,0.07651
58375676,3.11339,0.83269
58402712,4.98045,-0.59859
58430792,5.00000,-1.16751
58458884,4.99511,-0.08279
58486964,5.00000,0.58273
58514000,4.99511,0.60805
58541036,5.00000,0.32705
58568080,4.93646,-0.00334
58596152,3.15738,-0.65456
58624236,0.22483,-0.37735
58652284,0.00000,1.13869
58679328,0.00000,0.31995
58706360,0.00000,-0.46975
58734440,0.00000,-0.62689
58762532,0.00000,-0.38545
58790604,0.00000,-0.06280
58818688,0.00000,0.15903
58845752,0.59140,0.40393
58872788,4.63343,1.12828
58899828,5.00000,-1.38565
58927916,4.99511,-0.70840
58956000,4.99511,0.30255
58983040,3.71945,0.28458
59010084,2.82502,0.70651
59037116,1.65689,0.36446
59064156,0.07331,-0.06473
59092236,0.01466,0.28824
59119276,0.01955,-0.29949
59147328,0.00000,-0.58253
59175400,0.00000,-0.43618
59203488,0.00000,-0.14878
59231564,0.00000,0.09173
59258600,0.00000,0.20840
59285644,0.00000,0.21101
59312712,0.70870,0.34834
59339756,4.80450,0.96184
59366792,5.00000,-1.59406
59394872,5.00000,-0.71727
59422960,4.99511,0.32199
59449996,5.00000,0.66546
59477040,5.00000,0.49078
59504076,5.00000,0.16215
59531116,4.99511,-0.09914
59559196,4.93157,-0.23136
59587276,1.21212,-1.24054
59615368,0.01955,0.92645
59642360,0.00000,0.97767
59669404,0.00000,-0.07287
59697516,0.54741,-0.44645
59725596,3.63148,0.11959
59752640,4.98534,-1.10623
59780716,4.99511,-0.91792
59808804,5.00000,0.28581
59835832,5.00000,0.84007
59862876,5.00000,0.73656
59889916,5.00000,0.34997
59916956,5.00000,-0.01499
59945040,5.00000,-0.22332
59973116,5.00000,-0.26998
60001200,4.99511,-0.21314
60029280,4.80938,-0.16538
60057364,4.43793,-0.06094
60085448,3.86119,0.03629
60112480,3.20626,0.13020
60138500,2.85924,0.23680
60166556,2.79570,0.13599
60193596,2.82991,-0.07449
60221676,2.94233,-0.16559
60249760,2.96676,-0.18334
60277844,2.93744,-0.08022
60305920,2.82014,0.01905
60332956,2.81525,0.13826
60360008,2.84457,0.11173
60387044,2.83480,0.02558
60414092,2.83969,-0.00546
60442164,2.76637,-0.04417
60470244,2.50244,-0.07079
60498332,2.02835,-0.04001
60526404,1.39785,0.02791
60553444,0.08309,-0.09208
60581480,0.00000,0.49066
60608528,0.00000,0.09650
60635560,0.00000,-0.23587
60663640,0.00000,-0.28195
60691724,0.00000,-0.16121
60719840,0.27370,0.06211
60746880,3.39198,0.86021
60773912,4.98045,-0.65616
60801992,5.00000,-0.98346
60830080,4.99511,0.05239
60857120,4.99511,0.62077
60884168,4.99511,0.58721
60911196,5.00000,0.27998
60938232,5.00000,-0.02711
60966312,4.97067,-0.20695
60994396,4.34018,-0.39928
61022480,2.83480,-0.36165
61050560,1.45161,0.18203
61077604,0.61095,0.45892
61104636,0.77224,0.41094
61131680,1.57380,-0.04340
61159756,2.85435,-0.37776
61187836,4.18377,-0.51772
61215920,3.78299,-0.81469
61243996,0.67937,-0.62232
61272084,0.00489,1.58244
61299080,0.00000,1.24242
61326120,0.00000,0.10016
61353160,0.00000,-0.53336
61381240,0.00000,-0.59994
61409364,0.13196,-0.33707
61437436,2.51222,0.52142
61464476,2.32649,-0.88345
61492556,0.10264,-0.77529
61520596,0.00000,1.17625
61547644,0.00000,0.84858
61574680,0.00000,0.13920
61601720,0.00000,-0.27045
61629836,0.45943,-0.21861
61657916,2.73216,0.22782
61684956,4.83871,-0.42477
61713040,4.99511,-1.05970
61741116,5.00000,-0.08898
61769196,5.00000,0.59587
61796236,5.00000,0.65679
61823276,5.00000,0.37329
61850316,5.00000,0.04673
61877360,5.00000,-0.16445
61905436,5.00000,-0.23129
61933520,5.00000,-0.19472
61961600,5.00000,-0.11301
61989688,4.99511,-0.03377
62017764,4.83382,-0.02106
62045844,4.54057,0.02571
62072888,4.29130,0.11328
62099920,4.06158,0.09886
62126956,3.79277,0.02362
62154000,3.46530,-0.02956
62182080,3.17693,-0.01203
62210164,2.57087,-0.10826
62238236,0.28837,-0.46701
62266276,0.00000,0.78325
62293356,0.00978,0.37495
62320360,0.00000,-0.22401
62348448,0.00000,-0.39745
62376524,0.00000,-0.27954
62404604,0.00000,-0.07705
62432688,0.00000,0.07672
62459720,0.00000,0.14053
62486756,0.00000,0.13044
62513800,0.00000,0.08259
62540848,0.00000,0.02938
62567880,0.00000,-0.01006
62596000,0.21994,0.03250
62623036,2.16520,0.43603
62650072,4.33040,-0.17715
62678164,4.93157,-0.95391
62706240,4.62854,-0.49133
62734316,1.01173,-0.53605
62762400,0.01466,1.72046
62789400,0.00000,1.34190
62816444,0.00000,-0.02720
62844520,0.00000,-0.75184
62872608,0.00000,-0.77152
62900680,0.00000,-0.44502
62928764,0.00000,-0.08604
62956840,0.00000,0.14851
62983916,0.00978,0.23426
63010956,0.44477,0.32409
63037996,2.51711,0.54927
63065032,4.11535,-0.34820
63093116,4.99511,-0.66338
63121192,5.00000,-0.41112
63149280,4.99511,0.28308
63176320,5.00000,0.51891
63203360,5.00000,0.36507
63230396,5.00000,0.09939
63257432,5.00000,-0.10415
63285516,5.00000,-0.18948
63313596,5.00000,-0.17655
63341688,3.81720,-0.44809
63369760,0.88465,-0.42886
63397840,0.00978,1.05458
63424840,0.00000,0.75076
63451916,0.00489,-0.19880
63480004,1.23656,-0.24897
63508080,3.12317,-0.41585
63536164,4.06158,-0.82937
63564232,4.37439,-0.40935
63592316,4.72629,0.34768
63619356,4.12512,0.33881
63646396,4.97067,0.97593
63673444,4.99511,0.08192
63700472,5.00000,-0.15201
63728552,5.00000,-0.17728
63756632,5.00000,-0.14707
63784712,5.00000,-0.10477
63812804,4.86804,-0.09911
63840876,4.00782,-0.21847
63868964,3.71945,0.26542
63895996,4.18377,0.38723
63923036,4.10068,-0.21009
63951116,3.59238,-0.33074
63979196,3.42620,0.05992
64006244,3.35777,0.13040
64033280,2.95699,-0.04658
64061356,2.81525,0.09171
64088400,2.39492,-0.04601
64116480,1.69110,-0.07750
64144564,1.58358,0.22727
64171596,2.15054,0.23134
64198640,2.77615,-0.14456
64226716,3.03519,-0.39527
64254800,3.43597,-0.12649
64282880,3.69013,0.00233
64309912,3.01564,-0.13292
64338000,2.68817,0.33749
64365036,3.08407,0.51280
64392076,3.26979,-0.00973
64420164,4.17889,-0.00821
64448236,3.02542,-0.85652
64476324,3.78299,0.43443
64503356,3.62170,-0.06648
64531440,2.02835,-0.41997
64559524,0.86510,0.31886
64586564,1.40274,0.87756
64613596,2.50244,0.18900
64640636,2.92278,-0.71093
64668724,2.91789,-0.66486
64696796,3.07429,-0.07058
64724876,3.47507,0.28341
64751916,3.74878,0.19972
64778956,3.17204,-0.11111
64807044,1.42229,-0.19227
64835116,0.44966,0.55015
64862156,0.88465,0.75126
64889200,1.89638,0.03804
64916240,2.49267,-0.73291
64944324,2.82014,-0.68353
64972396,3.29423,-0.15576
65000480,4.40860,0.32797
65027516,4.97067,0.03144
65054556,4.25220,-0.25813
65082640,2.61486,0.01033
65109672,1.23167,0.60024
65136724,0.41056,0.64777
65163756,0.68426,0.38474
65190800,1.66667,-0.21352
65218884,2.25318,-0.85065
65246956,3.31378,-0.49182
65275044,2.17009,-0.84929
65303116,2.84946,0.75409
65330160,2.88368,0.41366
65357196,2.04301,0.00407
65384232,1.17302,0.18540
65411272,0.90909,0.39459
65438312,1.50049,0.28163
65465360,2.51711,-0.16976
65493432,3.13783,-0.62436
65521512,3.15738,-0.57150
65549596,1.83773,-0.39120
65577676,0.12708,0.31407
65604688,0.00000,1.14654
65631720,0.00000,0.42581
65658760,0.00000,-0.25217
65686876,0.10753,-0.43608
65714956,0.23460,-0.36246
65743008,0.00000,-0.27688
65771080,0.00000,0.10570
65798120,0.00000,0.18183
65825196,0.10753,0.17364
65852228,0.97752,0.28380
65879272,1.88172,-0.06543
65907356,2.45846,-0.32012
65935440,1.77419,-0.50291
65963516,0.81134,0.07189
65990560,0.48387,0.63789
66017604,0.84555,0.54107
66044640,1.63245,0.04651
66071684,2.43891,-0.40413
66099760,4.42815,-0.11444
66127836,3.06940,-1.30663
66155916,3.37732,0.46390
66182952,3.18182,0.46770
66209996,3.07918,0.38983
66237036,2.65396,0.06773
66264084,1.58847,-0.18814
66292160,0.61095,0.03190
66319196,0.29326,0.25661
66346240,0.03910,-0.04018
66374284,0.00000,-0.17956
66402364,0.00000,-0.23872
66430440,0.00000,-0.16996
66458564,0.10264,-0.01102
66486604,0.00000,-0.00165
66514680,0.00000,0.13433
66541724,0.00000,0.12897
66568756,0.00000,0.07609
66595804,0.00000,0.02244
66622844,0.00000,-0.01341
66650956,0.00978,-0.02617
66679032,0.06843,-0.01629
66707120,0.00489,-0.06302
66735200,0.51320,0.14767
66762236,0.72825,-0.11708
66790312,0.58162,-0.19694
66818400,0.38123,0.00194
66845436,0.02933,0.08916
66872480,0.30303,0.31905
66899512,0.64516,0.05870
66926552,0.67937,-0.23466
66954636,0.86022,-0.10374
66982716,0.89443,-0.07549
67010796,1.35386,0.14309
67037836,2.65396,0.26694
67064876,0.76246,-1.02862
67092952,0.75269,0.56805
67119996,0.88954,0.51260
67147036,1.25122,0.14308
67174076,1.55914,-0.21138
67202164,1.68622,-0.31688
67230244,1.65689,-0.19117
67258320,1.88661,0.09790
67285360,1.65689,-0.03107
67313436,0.78690,-0.08905
67341520,0.05376,0.22925
67368564,0.01955,0.43074
67395564,0.00000,0.03232
67422600,0.00000,-0.21656
67450720,0.01466,-0.24069
67478796,0.62561,0.02268
67505836,1.25611,-0.07822
67533924,1.94526,-0.08379
67562000,2.47801,-0.08004
67590072,2.60997,-0.06340
67618156,2.67351,0.13904
67645204,2.49756,0.15549
67672244,2.50733,0.23219
67699280,2.23363,0.00326
67726316,1.87683,-0.05327
67754400,1.83284,0.05069
67781440,1.81329,-0.06038
67809524,1.86217,-0.10757
67837600,1.87195,-0.12407
67865684,1.94037,-0.04296
67893752,2.04790,0.01396
67920796,1.94526,-0.03096
67948880,1.63245,-0.00628
67976960,2.59531,0.46679
68004004,0.96774,-0.73493
68032080,1.33431,0.53964
68059120,1.60313,0.20758
68086156,1.91593,-0.10180
68114236,2.31183,-0.18486
68142316,2.31183,-0.27272
68170400,2.17986,-0.06873
68198484,2.33138,0.21393
68225516,2.03812,0.02219
68252560,1.51515,0.01532
68279596,1.38807,0.22041
68306636,1.09971,0.01276
68333680,1.21212,0.04922
68360716,1.45650,-0.07602
68388796,1.58847,-0.20376
68416876,2.05767,-0.03078
68444956,2.50733,-0.05128
68473040,2.46823,-0.16455
68501116,2.67351,0.13651
68528164,2.83969,0.14637
68555200,2.74194,0.01752
68582232,2.30694,-0.04354
68610316,2.06256,0.13362
68637360,1.95503,0.11604
68664408,1.74487,-0.05826
68692484,1.74976,-0.03538
68720560,2.12121,0.00790
68747596,2.18475,-0.21508
68775672,2.19453,-0.12616
68803760,2.48289,0.10089
68830796,2.41935,-0.03079
68858876,3.36755,0.34229
68885916,1.66667,-0.74849
68913996,1.95503,0.62144
68941036,1.84262,0.21191
68968080,1.84262,-0.00736
68996164,2.05767,-0.07838
69024236,2.00880,-0.24095
69052312,2.11144,-0.07455
69080396,2.26295,0.00797
69107436,2.16031,-0.04847
69135528,1.85728,-0.00468
69163600,1.79863,0.18182
69190640,1.76442,0.10658
69217680,1.80352,0.01791
69244720,1.93548,-0.03768
69272796,1.84751,-0.14943
69300880,1.91105,-0.01088
69328960,2.16520,0.06544
69356000,2.13587,-0.08655
69384080,2.06256,-0.02399
69412164,2.12610,0.09058
69439196,2.38025,0.10682
69466240,2.56598,-0.03292
69494316,2.77615,-0.05524
69522396,3.08895,-0.01292
69550476,3.32845,-0.04457
69578556,3.35288,-0.07177
69606640,3.46530,0.06350
69633676,3.55327,0.06760
69660724,3.33822,-0.04471
69688800,3.09873,0.02861
69715840,2.96676,0.09354
69742880,2.86413,0.03475
69769928,4.30596,0.40021
69796964,2.56598,-1.10745
69825040,2.82991,0.41782
69852076,3.03030,0.29903
69879120,3.20137,0.01613
69906160,3.43597,-0.08443
69934248,3.61681,-0.11663
69962324,3.90029,-0.02296
69990404,3.91984,-0.07296
70018476,3.67546,-0.03415
70046560,3.38221,0.10230
70073596,3.26491,0.19432
70100640,3.21603,0.09052
70127684,2.54154,-0.22303
70155756,1.23167,-0.22319
70183836,0.38612,0.26131
70210884,0.41544,0.43434
70237916,0.93353,0.07101
70264964,1.37830,-0.38088
70293040,1.58847,-0.45547
70321120,1.73998,-0.17338
70349192,2.15543,0.17593
70376236,2.09677,0.05421
70403276,2.14076,0.19686
70430316,2.27273,0.19665
70457360,2.25806,0.02697
70484396,2.16031,-0.04457
70512472,1.94037,-0.06760
70540552,2.02346,0.07052
70567596,2.41447,0.06206
70594644,2.77126,-0.12062
70622716,2.73705,-0.25843
70650800,2.62952,-0.06351
70678876,2.65885,0.14806
70705916,2.60508,0.10770
70732964,3.90029,0.44784
70760000,1.44184,-1.16872
70788080,0.18573,0.32847
70815120,0.01955,0.87207
70842160,0.34213,0.33743
70869196,1.08993,-0.21035
70897280,1.68133,-0.59035
70925360,2.11144,-0.47900
70953436,2.71750,-0.05768
70981512,3.31867,0.13956
71008556,3.41153,0.05597
71035596,3.51906,0.22436
71062644,3.55816,0.21489
71089676,3.40665,0.07813
71116716,2.69795,-0.12251
71144792,1.01173,-0.24557
71172880,0.02933,0.36292
71199888,0.00000,0.46808
71226960,0.18573,-0.08350
71255036,0.96774,-0.27686
71283120,1.68133,-0.48275
71311196,2.10166,-0.40681
71339276,2.11632,-0.13636
71367352,1.31476,0.03647
71394396,1.11926,0.63286
71421436,1.56403,0.61410
71448480,1.95992,0.02814
71475524,1.97947,-0.38255
71503596,1.70577,-0.34246
71531688,1.62268,0.00202
71558716,2.00391,0.21607
71585760,2.30694,-0.00039
71613836,2.54643,-0.10441
71641916,2.84946,-0.04525
71669996,2.94721,-0.06503
71698072,4.45748,0.43934
71725116,3.04008,-0.87560
71753196,3.49462,0.50921
71780236,3.34311,0.16763
71807276,2.50733,-0.13745
71835356,1.75953,0.08286
71862404,2.37537,0.50735
71889440,3.18182,-0.02887
71917516,0.95308,-1.26896
71945596,0.01466,0.25875
71972600,0.00000,0.74471
71999648,0.00000,0.18825
72026680,0.00000,-0.20930
72054760,0.00000,-0.28134
72082844,0.00000,-0.17043
72110924,0.00000,-0.02721
72139000,0.00000,0.06844
72166040,0.00000,0.09983
72193084,0.00000,0.08434
72220120,0.00000,0.04826
72247164,0.00000,0.01255
72274208,0.00000,-0.01175
72302280,0.00000,-0.02234
72330364,0.00000,-0.02221
72358436,0.00000,-0.01619
72386516,0.00000,-0.00862
72414604,0.00000,-0.00230
72442684,0.00000,0.00163
72469720,0.00000,0.00322
72496756,0.00000,0.00314
72523804,0.00000,0.00222
72550840,0.00000,0.00112
72577884,0.00000,0.00024
72604924,0.00000,-0.00029
72633000,0.00000,-0.00048
72661080,0.00000,-0.00044
72689160,0.00000,-0.00030
72717284,2.08211,0.59007
72744316,4.47214,-0.10367
72772400,4.99511,-1.08332
72800480,4.99511,-0.42969
72828564,4.99511,0.39886
72855608,4.99511,0.62748
72882640,4.96579,0.42224
72909676,3.07918,-0.40542
72937752,1.19257,0.06254
72964792,0.25415,0.53106
72991840,0.19550,0.29995
73018876,1.20235,-0.08906
73046956,2.77126,-0.53266
73075036,4.87292,-0.57415
73103116,4.99022,-1.04765
73131200,5.00000,0.00745
73158232,5.00000,0.70066
73185272,5.00000,0.74787
73212312,5.00000,0.43798
73239360,4.99511,0.07931
73266392,5.00000,-0.15420
73294476,5.00000,-0.24344
73322564,5.00000,-0.21510
73350644,5.00000,-0.13279
73378724,5.00000,-0.04709
73406804,5.00000,0.01441
73433840,5.00000,0.04447
73460888,5.00000,0.04870
73487920,5.00000,0.03777
73514960,5.00000,0.02166
73542000,5.00000,0.00726
73569040,5.00000,-0.00222
73597124,5.00000,-0.00654
73625200,4.55523,-0.13303
73653288,1.55425,-0.68901
73681356,1.40762,1.15300
73708392,2.25318,0.74440
73735436,4.00293,-0.08087
73763512,4.99022,-1.01859
73791600,5.00000,-0.96392
73819676,5.00000,-0.03896
73847756,5.00000,0.49303
73874792,5.00000,0.53669
73901832,5.00000,0.32550
73928876,5.00000,0.07831
73955912,5.00000,-0.09000
73983992,5.00000,-0.15495
74012080,4.99511,-0.14339
74040160,5.00000,-0.08791
74068240,5.00000,-0.03667
74096324,5.00000,0.00442
74123372,4.90225,-0.00134
74151440,4.25220,-0.11652
74179520,3.40665,0.04498
74206556,2.12610,0.06667
74233596,0.67449,0.14878
74260640,0.00978,0.39222
74287636,0.00000,0.18045
74314680,0.00000,-0.30920
74342800,0.00978,-0.42540
74370840,0.00000,-0.27410
74398924,0.00000,-0.03975
74427004,0.00000,0.11835
74454044,0.00000,0.17185
74481116,0.09775,0.17464
74508160,1.62268,0.48175
74535196,3.17693,-0.12248
74563272,2.39980,-1.05956
74591364,4.91202,0.84132
74618400,5.00000,-0.48032
74646472,5.00000,-0.11547
74674560,4.99022,0.26843
74701596,4.13001,0.07909
74728640,2.19941,-0.05737
74756712,1.05572,0.52545
74783764,1.95503,0.81017
74810796,3.87586,-0.02254
74838872,4.97067,-1.13346
74866952,5.00000,-1.12457
74895036,5.00000,-0.11241
74923132,4.99511,0.51075
74950152,5.00000,0.60205
74977192,5.00000,0.38654
75004232,5.00000,0.11774
75031272,4.50147,-0.21580
75059360,2.25806,-0.60581
75087440,0.42522,0.24964
75114476,0.62072,0.96462
75141516,2.15054,0.37355
75168556,3.38221,-0.77823
75196632,3.76833,-1.10402
75224720,2.99120,-0.67910
75252800,1.81818,0.25072
75279836,2.21896,1.24281
75306872,4.52590,1.09752
75333916,4.99511,-0.78007
75361992,5.00000,-0.77926
75390080,4.99511,-0.13909
75418156,2.32649,-0.52025
75446236,0.07331,0.64229
75473272,0.53763,1.56519
75500312,4.16422,1.04176
75527360,4.99511,-1.82970
75555432,5.00000,-1.59112
75583524,4.98534,-0.24743
75611600,3.66080,0.19393
75638636,0.80645,0.39088
75665676,0.01955,1.52779
75692712,1.07038,1.11071
75719764,2.25806,-0.40856
75747836,1.93060,-1.51279
75775920,1.37341,-0.81563
75803992,2.40958,0.49798
75831032,4.16422,0.49466
75858080,4.98534,-0.30314
75886152,4.25709,-0.57656
75914236,0.57185,-0.58712
75942316,0.00489,1.75067
75969320,0.00000,1.06683
75996364,0.00000,-0.17969
76024440,0.00000,-0.74316
76052528,0.00000,-0.68270
76080604,0.00000,-0.35230
76108684,0.00000,-0.02797
76136800,0.01466,0.17025
76163800,0.00000,0.21067
76190844,0.00000,0.18379
76217880,0.00000,0.10633
76244924,0.00000,0.02991
76271960,0.00000,-0.02139
76300040,0.00000,-0.04355
76328116,0.00000,-0.04349
76356200,0.00000,-0.03149
76384284,0.00000,-0.01649
76412400,0.00489,-0.00270
76440444,0.00000,0.00029
76467492,0.00000,0.00751
76494516,0.00000,0.00733
76521564,0.00000,0.00467
76548600,0.00000,0.00193
76575644,0.00000,0.00003
76602676,0.00000,-0.00091
76630760,0.00000,-0.00110
76658876,0.00978,0.00189
76685912,0.29814,0.07756
76712956,0.49365,-0.05452
76741040,0.56207,-0.09959
76769116,0.75269,0.01941
76796152,1.09971,0.07416
76823200,1.63245,0.05713
76850244,4.82405,0.70652
76877276,4.99511,-1.17104
76905360,4.99511,-0.48012
76933440,5.00000,0.30764
76960472,5.00000,0.53460
76987524,4.99511,0.37564
77014556,5.00000,0.11339
77041592,5.00000,-0.09412
77069676,4.99511,-0.18184
77097756,5.00000,-0.16636
77125840,5.00000,-0.10998
77153924,5.00000,-0.04174
77182012,4.99511,0.00877
77209044,3.66080,-0.33953
77237124,0.99218,-0.21341
77265196,0.02933,0.97556
77292232,0.17595,0.75414
77319280,4.49658,0.93923
77346312,4.99511,-2.12152
77374392,5.00000,-1.37244
77402472,4.00293,-0.22771
77430560,0.33724,0.09372
77457564,0.00000,2.20205
77484600,0.00000,1.07883
77511688,0.00489,-0.27515
77539720,0.00000,-0.82912
77567800,0.00000,-0.72512
77595880,0.00000,-0.36413
77623964,0.00000,-0.02493
77652044,0.00000,0.17303
77679076,0.00000,0.22572
77706120,0.00000,0.18301
77733160,0.00000,0.10280
77760204,0.00000,0.02740
77787248,0.00000,-0.02248
77815352,1.96970,0.51462
77842392,1.33920,-0.96096
77870480,2.23851,0.14339
77897520,2.96676,0.09695
77924560,2.83969,-0.21064
77952640,2.51711,0.03543
77979684,2.98631,0.47614
78006716,3.86119,0.26980
78033756,4.56989,-0.20027
78061836,4.52102,-0.49464
78089912,3.81232,-0.29073
78118004,3.17204,0.23439
78145036,2.73216,0.40760
78172076,2.39003,0.21995
78199124,2.17498,-0.00293
78227196,2.05767,-0.14938
78255284,1.87683,-0.22403
78283360,1.78886,-0.11593
78311448,1.68133,-0.04735
78339520,1.31476,-0.05317
78367596,0.82600,0.04789
78394636,0.40567,0.16084
78421680,0.01955,0.13009
78448688,0.00000,0.13930
78475724,0.00000,-0.06137
78503800,0.00000,-0.15245
78531880,0.00000,-0.12174
78559964,0.00000,-0.04457
78588048,0.00000,0.02086
78615080,0.00000,0.05229
78642116,0.00000,0.05278
78669160,0.00000,0.03578
78696200,0.00000,0.01468
78723244,0.00000,-0.00200
78751324,0.00000,-0.01108
78779404,0.00000,-0.01322
78807480,0.00000,-0.01087
78835560,0.00000,-0.00671
78863652,0.00000,-0.00270
78891760,0.00978,0.00290
78918768,0.00000,-0.00487
78946840,0.00000,0.00397
78973880,0.00000,0.00379
79000920,0.00000,0.00164
79027960,0.00000,-0.00003
79056040,0.00000,-0.00076
79084120,0.00000,-0.00081
79112208,0.00000,-0.00054
79140284,0.00000,-0.00021
79168364,0.00000,0.00002
79195400,0.00000,0.00014
79222440,0.00000,0.00015
79249484,0.00000,0.00011
79276520,0.00000,0.00006
79303564,0.00000,0.00001
79330600,0.00000,-0.00002
79358680,0.00000,-0.00003
79386764,0.00000,-0.00003
79414836,0.00000,-0.00002
79442924,0.00000,-0.00001
79471000,0.00000,-0.00000
79499084,0.00000,0.00000
79526156,0.25904,0.07343
79553204,4.60411,1.13450
79580252,4.99511,-1.56096
79608324,4.99511,-0.82691
79636400,5.00000,0.29198
79663436,5.00000,0.70190
79690476,5.00000,0.55625
79717520,5.00000,0.21517
79744552,5.00000,-0.07225
79772632,5.00000,-0.21413
79800716,5.00000,-0.22387
79828800,5.00000,-0.15746
79856884,5.00000,-0.07088
79884964,5.00000,-0.00040
79913048,5.00000,0.03976
79940080,5.00000,0.05128
79967120,5.00000,0.04372
79994160,5.00000,0.02791
80021204,5.00000,0.01197
80048248,5.00000,0.00035
80075280,5.00000,-0.00581
80103360,5.00000,-0.00737
80131440,4.98534,-0.01026
80159528,4.44770,-0.15065
80187600,4.92180,0.33696
80214640,3.34311,-0.53980
80242720,3.56305,0.53810
80269756,2.55621,-0.16012
80297832,4.75073,0.86032
80324872,5.00000,-0.77721
80352956,4.67742,-0.72622
80381044,3.86608,-0.16231
80409120,2.69306,0.29541
80436156,1.16813,0.42059
80463196,0.13196,0.54922
80490236,0.31769,0.49371
80517284,1.36364,-0.04320
80545356,1.95503,-0.80111
80573436,2.28250,-0.70737
80601520,2.69795,-0.15434
80629592,3.08895,0.18625
80656636,3.29423,0.25449
80683676,3.27957,0.21863
80710720,3.11828,0.17544
80737760,2.81036,0.09820
80764796,2.55621,0.07350
80791836,2.30205,-0.01836
80819920,2.10166,-0.07419
80848004,2.11144,-0.05506
80876080,2.22385,-0.09208
80904160,2.09189,-0.18978
80932240,1.95015,-0.05574
80960320,1.95015,0.09786
80987356,1.88172,0.06099
81014396,3.43597,0.50499
81041440,1.76442,-1.03498
81069516,2.12121,0.47184
81096556,2.29228,0.28137
81123596,2.30205,-0.02067
81151676,2.26295,-0.09600
81179760,2.29228,-0.03897
81207840,2.34604,-0.01654
81235924,2.45357,-0.00045
81264000,2.45846,-0.04381
81292076,2.19453,-0.08083
81320156,2.02346,0.07405
81347204,1.99902,0.12737
81374248,2.04301,0.04696
81401276,2.08700,-0.04814
81429360,2.09189,-0.08456
81457436,2.12610,-0.03837
81485520,2.09677,-0.02501
81513604,2.02346,0.00570
81540640,1.95992,0.04270
81567684,1.93548,0.05104
81594724,1.94037,0.02416
81621760,1.95992,-0.00908
81649848,1.95503,-0.03495
81677920,1.89638,-0.03796
81706008,1.85728,0.00483
81733040,1.91593,0.04457
81760080,1.99902,0.01120
81787120,1.91593,-0.06873
81815200,1.92571,0.01677
81842252,1.97947,0.03448
81869280,2.22385,0.05946
81896316,2.81525,0.06927
81923356,1.58847,-0.60774
81951436,1.94526,0.48800
81978480,2.06256,0.17880
82005516,2.12121,-0.05789
82033600,2.13099,-0.11978
82061684,2.17498,-0.05949
82089760,2.24829,-0.00833
82117844,2.26295,-0.01049
82145916,2.08211,-0.03854
82174008,1.76442,0.00701
82201040,1.68622,0.15188
82228084,1.73998,0.09493
82255116,1.79863,-0.04153
82283196,1.85239,-0.09684
82311280,1.89638,-0.07776
82339356,1.90616,-0.03629
82367440,1.88661,0.00885
82394480,1.87683,0.04601
82421524,1.88172,0.04780
82448568,1.88172,0.02143
82475600,1.89150,0.00376
82502640,1.86217,-0.02176
82530724,1.89638,0.00684
82557760,2.36070,0.11438
82584800,3.65591,0.18118
82611832,4.91691,-0.20564
82639920,4.88270,-0.65442
82667992,4.38905,-0.16253
82696072,4.58455,0.58583
82723112,5.00000,0.47499
82750156,4.99511,-0.04349
82778236,5.00000,-0.12032
82806312,4.99511,-0.10291
82834396,5.00000,-0.06470
82862476,4.53079,-0.17431
82890556,1.62757,-0.66754
82918636,0.04888,0.71243
82945636,0.00000,1.01706
82972684,0.00000,0.00270
82999716,0.00000,-0.57979
83027800,0.00000,-0.57431
83055880,0.00000,-0.28748
83083964,0.00000,0.00652
83111040,0.28837,0.26088
83138076,1.64712,0.49564
83165108,2.41447,-0.16824
83193192,2.59042,-0.34624
83221280,2.60508,-0.02775
83249360,4.87292,0.86882
83276396,5.00000,-0.57409
83304484,4.87781,-0.32893
83332560,3.65103,-0.17335
83360636,2.79081,0.48783
83387676,2.11632,0.48271
83414712,4.20332,0.89649
83441764,4.99022,-0.78897
83469832,5.00000,-1.05920
83497916,5.00000,-0.31609
83526000,5.00000,0.23107
83553036,4.99511,0.38866
83580084,4.99511,0.30251
83607112,5.00000,0.13503
83634156,5.00000,-0.00924
83662232,5.00000,-0.08256
83690316,5.00000,-0.09510
83718400,5.00000,-0.07192
83746480,5.00000,-0.03716
83774568,5.00000,-0.00696
83802640,5.00000,0.01168
83829680,5.00000,0.01866
83856720,5.00000,0.01725
83883760,5.00000,0.01180
83910812,5.00000,0.00567
83937836,0.54741,-1.26124
83965916,0.00489,1.51486
83992916,0.00000,0.91571
84019956,0.00000,-0.23609
84048076,0.10753,-0.67191
84076156,4.87292,0.72820
84103196,5.00000,-2.01068
84131268,5.00000,-0.74965
84159356,4.99022,0.54882
84186392,5.00000,0.96465
84213432,5.00000,0.72142
84240480,5.00000,0.27988
84267512,5.00000,-0.08054
84295592,5.00000,-0.25986
84323676,5.00000,-0.27745
84351760,5.00000,-0.20082
84379848,5.00000,-0.09718
84407928,4.99022,-0.01342
84436008,5.00000,0.04702
84463040,5.00000,0.05550
84490076,5.00000,0.04883
84517120,5.00000,0.03300
84544160,4.20332,-0.21014
84572248,2.97654,-0.04667
84600316,2.23851,0.37368
84627352,1.93060,0.32112
84654404,2.30694,0.12633
84681436,3.03519,-0.21544
84709520,3.59726,-0.47868
84737596,3.93451,-0.36947
84765676,3.88074,-0.12922
84793760,3.38221,0.10951
84820800,3.05963,0.43005
84847836,2.84946,0.37118
84874876,2.76149,0.14581
84901924,2.88856,-0.03513
84930000,3.05963,-0.19809
84958080,3.24047,-0.22174
84986156,3.35288,-0.16100
85014240,3.43597,-0.03693
85042324,3.53372,0.06693
85069364,3.39198,0.02498
85096400,3.01564,0.02819
85123440,2.73216,0.14553
85150480,2.47801,0.10812
85177532,2.38514,0.05637
85204556,2.27761,-0.07458
85232636,2.11632,-0.12827
85260720,2.06745,-0.04655
85288800,1.99902,-0.03429
85316880,2.65885,0.19925
85343916,2.22385,-0.36011
85372004,1.82307,-0.04535
85400076,2.06745,0.35240
85427120,2.13099,0.07381
85454160,2.11144,-0.07472
85482240,1.98925,-0.09379
85510324,2.08700,0.04526
85537360,2.30694,0.04015
85564400,2.40469,-0.07328
85592484,2.24829,-0.11896
85620560,1.91593,-0.02815
85648640,1.73509,0.14741
85675680,1.58847,0.11398
85702724,1.50538,0.03550
85729760,1.58358,-0.00373
85757836,1.81818,-0.04439
85785920,2.02835,-0.11652
85813996,2.10166,-0.12635
85842084,2.08211,-0.03504
85870164,2.04790,0.07087
85897196,2.00391,0.10064
85924236,1.93060,0.06646
85951276,1.83284,0.02314
85978320,1.69599,-0.01341
86006400,1.47116,-0.04132
86034484,1.37830,0.02802
86061520,1.45161,0.03943
86088552,2.19453,0.14193
86115596,2.17009,-0.35172
86143676,1.59824,-0.29881
86171768,1.94037,0.37862
86198800,1.95503,0.10338
86225840,1.98925,0.01530
86252876,1.96970,-0.03458
86280960,1.94526,-0.02332
86309044,2.00391,0.01551
86336080,1.95503,-0.04065
86363140,1.80841,-0.04177
86392248,1.61290,0.00305
86419280,1.61290,0.09709
86446320,1.73998,0.05526
86473356,1.82307,-0.06126
86501444,1.82796,-0.09565
86529520,1.79374,-0.04240
86557604,1.71554,0.01108
86584652,1.71065,0.07191
86611684,1.58358,0.00750
86638728,1.20235,-0.05484
86666800,0.96774,0.08218
86693836,0.93353,0.11218
86720876,1.20723,0.06886
86747920,1.33431,-0.15441
86776004,1.47116,-0.13778
86804080,1.55914,-0.06826
86832168,1.61779,0.01448
86859196,2.64907,0.34436
86886228,1.15836,-0.73283
86914316,1.53959,0.56058
86941360,1.59335,0.20982
86968404,1.69599,-0.01540
86996476,1.75953,-0.13198
87024564,1.86217,-0.10309
87052644,1.99413,-0.05103
87080720,2.03812,-0.04198
87108808,1.91105,-0.03110
87136880,1.57380,0.00247
87163924,1.41740,0.15622
87190960,1.48583,0.15431
87218008,1.61290,-0.00260
87246080,1.65200,-0.13535
87274156,1.57869,-0.13513
87302244,1.30010,-0.08284
87330312,1.00196,0.05728
87357356,0.90909,0.16866
87384396,0.98240,0.10866
87411440,1.12414,-0.02448
87439524,1.25122,-0.11075
87467600,1.43206,-0.07724
87495684,1.52004,-0.06580
87523756,1.17302,-0.11287
87551836,0.91398,0.11824
87578872,0.95308,0.24139
87605916,1.50049,0.20716
87632960,2.01369,-0.12392
87661036,1.22678,-0.59299
87689120,1.68622,0.31945
87716168,1.90616,0.11122
87743196,2.02835,-0.03481
87771284,2.12121,-0.03828
87799356,2.23851,0.00739
87826400,2.33627,0.01203
87853436,2.34604,-0.01130
87881512,2.00391,-0.08394
87909596,1.72043,0.07101
87936636,1.72532,0.17556
87963684,1.80841,0.03984
87990720,1.88661,-0.09405
88018796,1.89150,-0.13653
88046876,1.88661,-0.06602
88074956,1.89638,0.01160
88102004,1.85728,0.02784
88129040,1.83284,0.05005
88156084,1.78886,0.03277
88183120,1.79863,0.03330
88210164,1.96481,0.04236
88237208,2.16031,-0.02759
88265280,2.40469,-0.05053
88293356,2.58553,-0.07130
88321436,2.39980,-0.12388
88349516,2.25318,0.06706
88376556,2.07722,0.11784
88403596,1.87683,0.08296
88430644,2.92766,0.38513
88457680,1.27566,-0.89806
88485760,1.46628,0.41158
88512796,1.70577,0.25765
88539836,1.92571,-0.05962
88567920,2.16520,-0.16495
88595996,2.33627,-0.14959
88624076,2.32160,-0.08950
88652164,2.17498,0.02631
88679196,1.81329,0.07300
88706240,1.16813,0.06911
88733276,0.71848,0.19963
88760316,0.46432,0.14368
88787356,0.31281,-0.02469
88815440,0.40567,-0.08644
88843512,0.51808,-0.17445
88871596,0.67449,-0.13806
88899684,0.80156,-0.07064
88927760,0.87488,0.00567
88954796,0.96285,0.08413
88981836,0.96285,0.07024
89008876,0.90420,0.05801
89035920,0.82600,0.04947
89062952,0.78201,0.03823
89089996,0.75269,-0.00144
89118076,0.76735,-0.02358
89146160,0.85044,-0.02884
89174236,0.75758,-0.10036
89202320,0.74291,-0.00232
89230400,0.89932,0.07176
89257436,0.90909,-0.03551
89285520,2.34115,0.38656
89312556,0.80645,-0.95993
89340632,1.06061,0.44119
89367680,1.28055,0.33589
89394716,1.38807,0.01562
89421756,1.47605,-0.10237
89449836,1.62268,-0.07707
89477920,1.76931,-0.05363
89506000,1.81818,-0.05022
89534080,1.77908,-0.01158
89562164,1.60313,0.01326
89589196,1.57380,0.11591
89616236,1.72532,0.10799
89643276,1.89150,-0.02138
89671356,2.03324,-0.09367
89699444,2.14076,-0.08338
89727516,2.25806,-0.02067
89755600,2.40469,0.02732
89782640,2.44868,0.00052
89809676,2.44868,0.01738
89836720,2.42424,0.03376
89863756,2.23363,-0.01185
89891836,1.94037,0.00237
89918876,1.75464,0.07610
89945924,1.60802,0.03817
89972960,1.53470,-0.00727
90001040,1.48094,-0.05627
90029120,1.40274,-0.07365
90057196,1.52004,0.01689
90084236,1.41740,-0.08018
90112324,1.38319,0.01300
90139360,1.39296,0.05465
90166408,1.35386,0.02039
90193440,2.25806,0.28306
90220484,0.70870,-0.77118
90248564,0.79668,0.45414
90275600,0.65982,0.23240
90302644,0.53763,0.01631
90329680,0.43988,-0.08663
90357756,0.53275,-0.05271
90385836,0.59629,-0.09797
90413916,0.68426,-0.06259
90441996,0.64516,-0.05302
90470076,0.43500,-0.01500
90498160,0.42522,0.14544
90525192,0.58162,0.13494
90552236,0.68915,-0.01753
90580312,0.82111,-0.06003
90608392,0.93353,-0.06216
90636480,0.87977,-0.07403
90664556,0.82111,0.01819
90691600,0.85044,0.08669
90718632,0.95308,0.06402
90745672,1.06549,-0.00670
90773752,1.18768,-0.04078
90801836,1.32942,-0.03573
90829924,1.41251,-0.04027
90857996,1.47605,-0.00596
90886076,1.51515,0.01818
90913116,1.52981,0.02559
90940160,1.59824,0.04283
90967204,1.58358,-0.01318
90995280,1.52004,-0.02014
91023364,1.64223,0.05768
91050400,1.90127,0.03364
91077436,2.92278,0.16130
91104476,2.99609,-0.41151
91132556,2.70772,-0.24841
91160640,3.13294,0.33887
91187676,3.24536,0.11174
91214720,3.22092,0.00041
91241760,3.12317,-0.00414
91269840,3.04008,0.02750
91296884,3.02542,0.03290
91323920,2.91789,-0.04658
91352000,2.54154,-0.11654
91380080,2.08211,-0.02089
91408160,1.80352,0.11799
91435208,1.73021,0.10957
91462244,1.74487,-0.01391
91490328,1.74487,-0.11194
91518396,1.78397,-0.08756
91546476,1.70088,-0.07628
91574556,1.50049,-0.01484
91602640,1.42717,0.11548
91629684,1.27566,0.06287
91656716,1.18280,0.05198
91683756,1.14858,0.02057
91710796,1.08993,-0.03812
91738876,1.02151,-0.04687
91766964,0.90909,-0.03885
91795040,0.85533,0.01542
91822084,0.75269,-0.00093
91850156,0.58162,-0.01094
91878232,0.41544,0.01986
91905276,0.07331,-0.02455
91933356,0.00489,0.10714
91960368,0.00000,0.03618
91987400,0.00000,-0.05205
92015508,1.08016,0.23382
92042564,0.04399,-0.74367
92070632,0.11730,0.22920
92097680,0.42033,0.32305
92124712,0.64516,0.05224
92151752,0.86999,-0.07267
92179832,1.20235,-0.05247
92207920,1.67155,-0.01567
92235996,2.17498,-0.03378
92264080,2.30205,-0.14367
92292160,2.07722,-0.07630
92320236,2.08700,0.21151
92347276,2.22874,0.20481
92374316,2.39980,0.04288
92401356,2.58553,-0.07409
92429440,2.72239,-0.12181
92457516,2.77615,-0.09905
92485596,2.74682,-0.03586
92513676,2.84946,0.08153
92540720,2.88856,0.03396
92567760,2.83969,-0.00954
92595840,2.73216,-0.00457
92623928,2.63441,0.02682
92650960,2.49267,0.01026
92678004,2.34115,0.00513
92705044,2.14076,-0.01376
92733120,2.02346,0.02053
92760172,1.98436,0.01467
92787204,1.92571,-0.03683
92815280,1.86217,-0.04069
92843360,1.70088,-0.04576
92871436,1.67644,0.05228
92898484,1.68622,0.03844
92925512,2.01857,0.08941
92952556,2.18475,-0.09383
92980636,1.27566,-0.38325
93008720,1.51026,0.40520
93035760,1.54448,0.13595
93062800,1.63245,-0.02171
93090884,1.75464,-0.08443
93118960,1.87195,-0.08850
93147036,2.06256,-0.02700
93175124,2.12610,-0.04578
93203196,1.95015,-0.05010
93231284,1.69110,0.04945
93258316,1.61779,0.16712
93285360,1.71554,0.11936
93312400,1.79863,-0.04298
93340484,1.97947,-0.07677
93368556,2.09189,-0.11340
93396640,1.95503,-0.12518
93424728,1.52493,-0.05429
93452796,1.06061,0.11778
93479840,0.77224,0.21342
93506884,0.96285,0.21821
93533920,1.45650,0.00562
93560964,1.70088,-0.30439
93589040,1.60802,-0.31294
93617116,1.21701,-0.10470
93645196,0.72336,0.14709
93672236,0.37146,0.28829
93699276,0.42033,0.27833
93726316,0.76735,0.06187
93753360,1.08016,-0.21369
93781432,1.08504,-0.32846
93809512,1.21212,-0.06961
93837596,1.30010,0.04706
93864640,1.61290,0.16095
93891684,1.83284,0.04076
93918712,0.72336,-0.37453
93946792,0.98240,0.50542
93973832,1.09482,0.16571
94000876,1.15836,-0.10838
94028968,1.36364,-0.12502
94057044,1.58847,-0.12213
94085128,1.73998,-0.09877
94113204,1.74976,-0.04907
94141280,1.57380,0.01070
94168320,1.32454,0.09645
94195356,1.24633,0.17657
94222404,1.27077,0.09337
94249440,1.25122,-0.05589
94277516,1.22190,-0.09661
94305608,1.37341,-0.01884
94333684,1.49560,-0.05325
94361768,1.55914,-0.05584
94389840,1.57869,-0.01272
94417932,1.54448,0.02490
94444960,1.58358,0.07909
94472000,1.63734,0.04865
94499040,1.62268,-0.01611
94527120,1.61290,-0.01308
94555208,1.62757,-0.00020
94583284,1.68133,0.00362
94610320,1.76442,-0.00663
94638408,1.80352,-0.03422
94666480,1.96970,0.02139
94693524,1.89150,-0.07594
94721600,1.72043,-0.02278
94749680,1.73021,0.11082
94776720,1.60313,0.01517
94803756,2.76637,0.36907
94830800,1.33431,-0.85524
94858880,1.42229,0.33476
94885932,1.67155,0.31629
94912964,1.82796,-0.01153
94941040,1.83284,-0.17265
94969120,1.91105,-0.07664
94997204,1.99902,-0.01191
95025288,2.08700,0.01811
95052320,2.11144,0.00950
95079360,1.89638,-0.03753
95107440,1.74976,0.07322
95134476,1.80352,0.12885
95161524,1.95015,0.03504
95188560,2.18475,-0.04875
95216648,2.39980,-0.10799
95244720,2.34604,-0.15441
95272800,2.29228,0.00388
95299836,2.14076,0.06376
95326876,2.10166,0.13103
95353920,2.22874,0.10825
95380956,2.26784,-0.04888
95409040,2.37048,-0.05773
95437124,2.40958,-0.07451
95465204,2.46823,-0.02190
95493288,2.50733,0.00347
95520320,2.44379,-0.00665
95548396,2.33627,0.02146
95575436,2.01369,-0.01481
95603520,1.95503,0.12977
95630564,1.94526,0.05289
95657600,1.72532,-0.10482
95685680,2.36559,0.18783
95712712,0.82111,-0.69999
95740792,0.95308,0.47713
95767832,0.56696,0.11238
95794880,0.04399,-0.04248
95822964,0.00489,0.11433
95849960,0.00000,-0.03792
95878040,0.00000,-0.12860
95906160,0.07331,-0.08846
95934240,0.34702,0.01032
95961284,0.53275,-0.03916
95989352,0.88954,0.04625
96016396,1.24633,0.02216
96043440,1.46628,-0.02964
96071520,1.51515,-0.02352
96099604,1.44184,0.03319
96126636,1.35386,0.09181
96153684,1.27566,0.08074
96180716,1.07038,-0.01446
96208800,0.85533,-0.02182
96236876,0.50831,-0.05835
96264964,0.02444,-0.05164
96293008,0.00000,0.14983
96320044,0.00000,0.00184
96347084,0.00000,-0.10141
96375160,0.00000,-0.09743
96403244,0.00000,-0.04087
96431324,0.00000,0.01461
96458364,0.00000,0.04436
96485404,0.00000,0.04743
96512436,0.00000,0.03399
96539484,0.00000,0.01560
96566524,0.00000,0.00023
96593560,0.00000,-0.00874
96621648,0.00000,-0.01147
96649716,0.00000,-0.00993
96677796,0.00000,-0.00645
96705884,0.00000,-0.00288
96734000,0.00489,0.00116
96761008,0.00000,-0.00201
96789080,0.00000,0.00267
96816120,0.00000,0.00252
96843156,0.00000,0.00124
96870200,0.00000,0.00018
96897236,0.00000,-0.00036
96925316,0.00000,-0.00048
96953404,0.00000,-0.00037
96981480,0.00000,-0.00019
97009560,0.00000,-0.00004
97037644,0.00000,0.00004
97064676,0.00000,0.00008
97091720,0.00000,0.00007
97118760,0.00000,0.00004
97145800,0.00000,0.00002
97172840,0.00000,-0.00000
97200920,0.00000,-0.00001
97229036,0.12708,0.03601
97256080,0.42033,0.03544
97283128,0.18573,-0.19697
97311168,0.00000,-0.00260
97339244,0.00000,0.14758
97366280,0.00000,0.07078
97393356,0.00978,-0.00749
97421436,0.64027,0.13065
97448476,1.30987,-0.08959
97476556,2.73705,0.03026
97503592,1.50049,-0.95000
97531680,1.97947,0.52170
97558724,2.42913,0.43296
97585756,2.26784,-0.05802
97613840,2.06256,-0.03720
97641916,1.45650,-0.08503
97669996,0.53763,-0.02634
97698076,0.00489,0.22725
97725080,0.00000,0.22226
97752124,0.00000,-0.12687
97780200,0.00000,-0.26577
97808320,0.03421,-0.19251
97836404,0.74780,0.12263
97863440,0.86510,-0.19552
97891520,0.60117,-0.13487
97919596,0.67449,0.25294
97946644,1.52004,0.43775
97973680,3.55816,0.35602
98000720,4.97067,-0.49479
98028800,4.99511,-0.83595
98056880,4.99511,-0.02337
98084964,4.99511,0.44686
98111992,5.00000,0.44740
98139032,5.00000,0.21862
98166084,5.00000,-0.01107
98194156,5.00000,-0.14384
98222244,4.99511,-0.17348
98250324,4.99511,-0.13033
98278408,5.00000,-0.06547
98306484,5.00000,-0.01227
98334564,4.99511,0.02300
98361600,5.00000,0.04219
98388644,4.99511,0.03402
98415688,4.99511,0.02592
98442728,4.99511,0.01278
98469764,5.00000,0.00338
98496800,5.00000,-0.00594
98524880,5.00000,-0.00682
98552968,5.00000,-0.00488
98581048,4.99511,-0.00404
98609128,4.99511,0.00098
98636164,4.67742,-0.08909
98664244,4.40860,0.04325
98691280,4.61877,0.21149
98718320,4.99022,0.04660
98745360,5.00000,-0.23705
98773436,5.00000,-0.12373
98801520,5.00000,0.01379
98828564,4.99511,0.07312
98855596,5.00000,0.07409
98882640,5.00000,0.03794
98909680,5.00000,0.00537
98936716,5.00000,-0.01424
98964804,5.00000,-0.02042
98992880,4.99511,-0.01886
99020972,4.86315,-0.04611
99049044,4.91202,0.06055
99076080,5.00000,0.02879
99103120,5.00000,-0.04760
99131200,5.00000,-0.02693
99159280,4.58455,-0.11620
99187364,4.63343,0.18472
99214404,4.53079,0.03434
99241436,4.07625,-0.11965
99269520,2.61486,-0.28360
99297604,1.26588,0.18958
99324636,0.10264,0.34780
99351644,0.00000,0.44482
99378680,0.00000,-0.12926
99406760,0.00000,-0.43343
99434880,0.00489,-0.36610
99462964,0.00978,-0.14507
99491040,0.22972,0.11487
99518076,1.12903,0.32875
99545124,1.58847,-0.07739
99573196,1.59824,-0.18157
99601276,2.13099,0.22358
99628316,2.25806,0.02560
99655356,1.66178,-0.15448
99683444,0.83578,0.05351
99710472,0.45455,0.34610
99737516,0.75269,0.31599
99764560,0.67937,-0.26221
99792640,0.01466,-0.48359
99820684,0.00000,0.05635
99847720,0.00000,0.05744
99874764,0.00000,-0.00469
99902844,0.00000,-0.01784
99930960,0.79179,0.22669
99957996,1.41740,-0.09495
99986076,0.44966,-0.60222
100014160,0.20039,0.27888
100042200,0.00000,0.37316
100070284,0.00000,0.23199
100098360,0.00000,-0.03197
100127484,0.00000,-0.15806
100156600,0.00000,-0.15287
100185720,0.00000,-0.08675
100214848,0.00000,-0.01737
100243960,0.00000,0.02733
100272040,0.00000,0.04317
100300120,0.00000,0.03831
100328204,0.00000,0.02389
100356284,0.00000,0.00881
100384360,0.00000,-0.00207
100413484,0.00000,-0.00746
100442628,1.18768,0.32834
100470712,4.52590,0.49419
100498796,5.00000,-1.31282
100527920,4.99511,-0.63146
100557040,3.88074,0.02868
100585120,1.25122,0.33899
100613200,0.99218,1.58692
100641276,2.06745,0.91142
100669356,2.67351,-0.63999
100698476,2.48778,-1.20134
100727596,0.26882,-1.16890
100756680,0.00000,0.73236
100784760,0.00000,0.68280
100812880,0.45455,0.27517
100840956,2.76637,0.32756
100869036,1.66667,-1.44955
100898160,0.02933,-0.49981
100927280,0.02444,1.01794
100955320,0.00000,0.62915
100983404,0.00000,0.07738
101011484,0.00000,-0.22242
101040600,0.00000,-0.26410
101069720,0.00000,-0.17235
101098844,0.00000,-0.05621
101127964,0.00000,0.02684
101156040,0.00000,0.06280
101184116,0.00000,0.06187
101212204,0.00000,0.04178
101240280,0.00000,0.01790
101268364,0.00000,-0.00064
101297508,0.39101,0.10013
101325592,0.80156,-0.04355
101354712,1.15836,-0.12676
101383840,2.02346,0.06691
101411920,2.72239,-0.09859
101441036,3.17204,-0.14285
101470160,3.28935,-0.06853
101499276,2.56598,-0.09038
101528400,1.74487,0.24458
101556476,1.74487,0.57153
101584556,2.00391,0.18721
101612644,2.50733,-0.17614
101641760,2.72239,-0.46397
101670880,1.89638,-0.58138
101700000,0.12219,-0.22465
101729080,0.00000,0.91303
101757156,0.00000,0.44801
101785236,0.00000,-0.11172
101814368,0.00000,-0.32030
101843480,0.00000,-0.26176
101872604,0.00000,-0.10833
101901760,0.00489,0.02500
101929836,0.69892,0.28563
101957916,2.14565,0.24694
101985992,3.00587,-0.33999
102015124,4.92180,0.07114
102043200,4.99511,-0.62655
102071300,5.00000,0.00451
102100404,4.99511,0.42000
102128476,5.00000,0.41598
102156556,5.00000,0.19067
102184632,5.00000,-0.03258
102213760,5.00000,-0.15775
102242876,4.78983,-0.23833
102272004,3.82209,-0.32866
102301120,3.75855,0.31362
102329200,4.42326,0.34639
102357280,4.98534,-0.15174
102386396,5.00000,-0.44408
102415520,5.00000,-0.13708
102444636,5.00000,0.11981
102472720,5.00000,0.19524
102500796,5.00000,0.14817
102528876,5.00000,0.06206
102556952,5.00000,-0.00925
102586076,5.00000,-0.04627
102615200,5.00000,-0.05209
102644316,5.00000,-0.03919
102673448,5.00000,-0.02027
102702560,5.00000,-0.00383
102731684,4.98045,0.00078
102759764,4.98045,0.01743
102787840,5.00000,0.01806
102815928,4.17400,-0.23649
102845040,2.60997,-0.13641
102874160,3.15738,0.87454
102902236,2.09677,-0.31315
102931352,3.52395,0.47923
102959432,4.26197,-0.44107
102988556,4.93646,-0.52021
103017676,4.40371,-0.56472
103046800,2.55132,-0.20074
103075924,1.21701,0.77674
103103996,0.76246,0.96320
103132076,1.01662,0.40696
103160160,1.65200,-0.27253
103189276,2.44379,-0.60846
103218396,2.70772,-0.70495
103247516,1.79374,-0.54254
103276640,1.42229,0.43716
103304716,1.77419,0.76092
103332800,2.08700,0.25808
103360876,2.20919,-0.15359
103389996,2.26295,-0.20841
103419116,1.65689,-0.29279
103448236,1.47605,0.16472
103476324,1.73998,0.27907
103504400,2.05767,0.01673
103532480,2.41935,-0.14095
103561596,2.64907,-0.19583
103590720,2.37048,-0.21568
103619836,2.43891,0.18087
103647916,2.70283,0.23141
103676004,2.86413,0.02923
103704072,2.82991,-0.09969
103733196,2.80547,-0.02967
103762324,2.98143,0.07385
103790400,2.60508,-0.15276
103819520,3.47507,0.36081
103847600,1.98925,-0.68626
103876728,2.58065,0.56855
103904808,2.77126,0.08620
103932884,2.75171,-0.19126
103962000,2.37537,-0.22863
103991120,1.51026,-0.12882
104020244,1.43695,0.39571
104048320,1.79374,0.28563
104076408,1.82307,-0.19819
104105516,1.78397,-0.23970
104134636,1.89638,-0.05478
104163756,1.64223,-0.09678
104192876,1.78886,0.18011
104220956,1.95503,0.10259
104249040,2.01857,-0.02919
104278168,2.17498,-0.00492
104307276,2.11632,-0.07825
104336404,1.93548,-0.03281
104365520,1.90616,0.10015
104393596,1.78397,0.03130
104421676,1.86217,0.06337
104449760,2.06256,0.00687
104477844,1.75953,-0.22322
104506960,1.86706,0.07543
104535036,1.96970,0.04438
104563120,1.93548,-0.04702
104592236,2.04301,0.02889
104620324,2.04301,-0.02268
104649440,1.83284,-0.05888
104678564,1.87683,0.10931
104706640,1.78886,0.01024
104734728,1.64223,-0.02223
104763840,2.53666,0.29367
104791920,1.38319,-0.66899
104821040,0.98240,0.14022
104849120,1.39296,0.48495
104877204,1.39296,-0.05461
104906316,1.44184,-0.14959
104935448,1.47605,-0.11983
104964560,1.33431,-0.09355
104993680,1.64712,0.16028
105021768,1.50049,-0.08637
105050884,0.99707,-0.10165
105080012,0.99218,0.24019
105108084,0.81134,0.05891
105136164,1.00196,0.08758
105164244,1.35875,-0.02969
105193360,1.31965,-0.26251
105222480,1.37830,-0.07292
105251592,1.04106,-0.07556
105280716,0.64516,0.09046
105308796,1.06549,0.39635
105336880,1.22678,-0.03018
105366004,1.28055,-0.18360
105395116,1.23167,-0.14067
105424236,0.94330,-0.07841
105453364,1.39296,0.28870
105481436,1.83773,0.05308
105509516,1.98925,-0.19071
105538640,1.78886,-0.19095
105567760,1.29032,-0.03236
105596876,1.40274,0.35458
105624956,1.79374,0.21947
105653036,1.88661,-0.17064
105682156,2.09677,-0.13753
105711276,1.98925,-0.17659
105740404,2.16031,0.08096
105768476,0.98729,-0.30870
105797596,1.65689,0.67056
105825680,1.76931,0.01014
105853760,2.00880,-0.14495
105882880,1.52981,-0.36929
105911996,0.60117,-0.15990
105941120,1.05572,0.59850
105969196,1.74487,0.22108
105997276,1.78397,-0.39479
106026396,1.69110,-0.28182
106055520,1.31965,-0.08390
106084640,1.08016,0.19669
106112720,1.70577,0.43954
106140804,2.29717,0.00290
106168876,2.47312,-0.33776
106197996,2.46334,-0.21842
106227116,1.80841,-0.14750
106256236,1.33431,0.25485
106284316,1.73998,0.52128
106312396,2.12121,0.03884
106340484,2.21896,-0.32008
106369604,2.77126,-0.09684
106398724,3.01564,-0.19104
106427836,2.61486,-0.22590
106456956,1.41251,-0.09432
106486080,0.76735,0.50146
106514156,1.34897,0.69804
106542244,2.09189,-0.00436
106571356,2.43402,-0.56538
106600480,2.64907,-0.44305
106629596,2.52199,-0.19769
106658720,1.69110,-0.04494
106687836,2.51711,0.80739
106715916,2.19941,-0.08891
106745036,1.95503,-0.08185
106774160,1.76931,0.00265
106802240,1.08993,-0.13913
106831356,0.43011,0.02940
106859432,0.44477,0.28022
106887516,1.28543,0.22498
106915596,1.35386,-0.47243
106944716,0.52297,-0.56062
106973832,0.46432,0.27254
107001916,0.63539,0.34986
107029992,0.32258,-0.03528
107059116,0.39101,0.09355
107087196,0.75758,0.07840
107115276,0.24438,-0.34573
107144396,0.44477,0.14078
107172472,0.82600,0.12113
107200556,1.02639,-0.09840
107229676,0.83578,-0.19667
107258792,0.13196,-0.12992
107287916,0.08309,0.35850
107315996,0.60606,0.34421
107344076,0.94330,-0.13150
107373196,1.06061,-0.30581
107402324,0.74780,-0.26563
107431440,0.06354,-0.05249
107460556,0.34702,0.50096
107488640,0.87488,0.23586
107516716,1.16325,-0.20311
107545836,1.39785,-0.23755
107574956,0.99707,-0.28137
107604080,0.82111,0.13928
107632152,1.32942,0.40466
107660236,2.94233,0.37924
107688312,1.45161,-1.12909
107717436,1.84262,0.37275
107745520,1.48094,0.11246
107773596,1.60313,0.25562
107801680,2.03812,0.13418
107829752,2.16031,-0.21747
107858876,2.45846,-0.12605
107887996,2.32160,-0.19833
107917116,1.81818,-0.08502
107946236,1.83284,0.31265
107974316,1.89150,0.17918
108002404,1.86706,-0.03588
108031524,1.74976,-0.11724
108060632,1.03128,-0.23467
108089752,0.65494,0.14087
108117832,1.22190,0.40172
108145916,1.42717,-0.14972
108175040,1.62268,-0.23921
108204164,1.66178,-0.17736
108233276,0.78690,-0.25284
108262396,0.64516,0.39714
108290476,1.42717,0.53687
108318560,1.75464,-0.16527
108347672,2.04790,-0.28553
108376796,2.12121,-0.22335
108405924,1.54448,-0.18417
108435036,1.67644,0.37672
108463120,2.04790,0.28595
108491196,2.10655,-0.10552
108520312,2.16520,-0.12811
108549444,1.89150,-0.15819
108578560,1.28543,-0.07326
108607684,1.97947,0.49911
108635764,2.40958,-0.03016
108664884,1.83773,-0.50418
108693996,2.31672,0.21121
108722080,2.27761,-0.05128
108751196,1.83284,-0.11703
108780316,2.11632,0.29551
108808396,2.42424,0.09814
108836476,2.40958,-0.17537
108865604,2.37048,-0.10217
108894716,1.68133,-0.17904
108923836,0.38123,-0.06328
108952956,0.34702,0.62369
108981036,0.98240,0.36464
109009116,1.28543,-0.34809
109038236,1.75953,-0.36663
109067364,1.92082,-0.32557
109096480,1.59335,-0.16490
109125592,1.79374,0.35440
109153676,2.05279,0.28418
109181756,1.93548,-0.02324
109210880,1.98436,0.03961
109238956,1.85239,-0.04931
109268080,1.21212,-0.16346
109297196,1.29032,0.24789
109325280,1.59335,0.11974
109353356,1.60313,-0.20925
109382480,1.74487,-0.12514
109411596,1.60313,-0.13836
109440720,1.31476,-0.01500
109469844,1.63734,0.29556
109497924,1.80841,0.03753
109526000,1.86706,-0.09660
109555120,2.42913,0.08648
109583196,2.33627,-0.23470
109612316,1.58847,-0.23020
109641436,2.08700,0.51154
109669524,2.00880,0.00284
109697596,2.16031,-0.01574
109726716,2.31183,-0.07668
109755836,2.21896,-0.15066
109784960,2.37048,0.04484
109813040,2.38514,-0.00586
109842156,1.89638,-0.12753
109871284,1.70088,0.15664
109899360,1.60802,0.15125
109927444,1.56892,0.03127
109955520,1.76931,-0.00260
109984636,1.58847,-0.22065
110013764,1.45161,-0.07253
110042876,1.28543,0.02419
110070968,0.87488,-0.00197
110100072,0.93842,0.21527
110128164,1.23167,0.11160
110156236,1.15347,-0.20186
110185360,1.33920,-0.04239
110214476,1.19746,-0.11826
110243596,0.66960,-0.09234
110272712,1.11926,0.40258
110300800,1.41740,0.04701
110328888,1.45161,-0.20058
110358000,1.82307,-0.01060
110387112,1.65689,-0.17957
110416236,0.77224,-0.18727
110445352,1.16813,0.55438
110473440,1.55914,0.17586
110501520,1.49560,-0.27510
110530644,2.54154,0.13533
110558720,1.19257,-0.80935
110587836,1.10459,0.34631
110615916,1.76931,0.56294
110643996,2.05279,-0.06124
110673116,2.17498,-0.25242
110702236,2.44868,-0.08848
110731360,2.21408,-0.16093
110760480,1.78886,0.01231
110788556,1.96481,0.35082
110816636,1.60313,-0.03424
110845756,1.40762,0.01832
110873844,1.75464,0.14166
110901916,1.52981,-0.25278
110931036,1.09482,-0.19043
110960156,1.50538,0.27218
110988236,1.54936,-0.05693
111017356,1.62757,-0.06895
111046476,2.04790,0.07103
111074560,2.25806,-0.07715
111103676,2.36559,-0.06440
111132804,2.40469,0.01198
111160876,2.14565,-0.00612
111189992,2.16520,0.18250
111218072,2.40469,0.14874
111246156,2.36559,-0.12000
111275272,2.22874,-0.12669
111304400,2.18475,-0.00006
111333524,2.14076,0.02015
111361600,1.91105,-0.04251
111390728,1.56892,-0.01544
111419836,3.10850,0.58572
111447912,1.81329,-0.91835
111477036,1.78397,0.16838
111505116,1.51026,0.18161
111533204,1.84262,0.29704
111561276,1.94526,-0.07566
111590396,1.76931,-0.22836
111619516,2.15054,0.08565
111647596,2.78104,0.06479
111675676,3.25024,-0.13521
111704796,3.22581,-0.23823
111733920,3.15249,0.02364
111761996,3.12317,0.19558
111790076,3.04497,0.15349
111818156,3.20137,0.13838
111846240,3.48974,0.00807
111874316,3.71945,-0.14336
111903436,3.69990,-0.20711
111932564,3.31867,-0.14783
111961680,2.78592,0.05106
111989764,2.57576,0.27738
112017844,2.79570,0.24839
112045924,2.93744,-0.08937
112075040,2.74194,-0.29107
112104160,1.68622,-0.35876
112133284,0.79179,0.16053
112161360,0.37146,0.42471
112189436,0.33724,0.25234
112217520,0.34213,-0.11296
112246640,0.16618,-0.31318
112275756,0.56696,-0.02434
112304876,1.59335,0.09765
112332964,0.03910,-0.86470
112362072,0.00978,0.50195
112390160,0.60117,0.63194
112418236,1.07038,0.05383
112446312,1.36852,-0.26062
112475436,1.98436,-0.10980
112504552,1.50538,-0.40526
112533680,1.56403,0.20080
112561756,1.81818,0.28850
112589844,1.34897,-0.11530
112618952,1.14858,0.08819
112647036,1.84751,0.31789
112675116,1.77908,-0.30929
112704240,1.79863,-0.18692
112733364,2.15543,0.05707
112761440,1.66178,-0.22864
112790564,1.45161,0.13549
112818636,2.13099,0.42691
112846716,1.99902,-0.21908
112875844,1.81329,-0.16152
112904956,2.22385,0.17186
112933044,2.15054,-0.11785
112962156,2.14565,-0.02349
112991284,2.47312,0.12523
113019356,2.20430,-0.16097
113048476,2.14565,0.05273
113076556,2.47312,0.18405
113104636,2.18475,-0.17542
113133764,2.19941,0.03951
113161836,2.02346,-0.02125
113190968,1.98436,0.05154
113219036,2.33138,0.12280
113247116,1.23656,-0.46408
113276236,1.52493,0.39936
113304316,1.79863,0.14541
113332404,1.74487,-0.19818
113361516,1.65689,-0.14359
113390640,2.02346,0.11313
113418716,1.94037,-0.11533
113447840,1.70577,-0.05439
113476964,1.67644,0.14294
113505040,0.93353,-0.10500
113534160,0.16129,0.07512
113562236,0.91887,0.58680
113590320,1.04106,-0.22604
113619432,1.05572,-0.36273
113648560,1.55425,-0.04018
113677676,1.28055,-0.25994
113706796,1.29032,0.12141
113734880,1.52981,0.24878
113762952,1.18280,-0.06575
113792080,1.24633,0.15243
113820156,1.45161,0.09285
113848232,1.19746,-0.18900
113877360,1.54936,0.10118
113905444,1.60802,-0.10794
113934564,1.56892,-0.10185
113963680,1.89638,0.10574
113991768,1.82796,-0.09025
114020880,1.79863,0.00952
114048960,1.66178,0.02864
114077036,1.24145,-0.01843
114106156,1.25611,0.19777
114134236,2.07722,0.27290
114162320,0.46432,-0.84064
114191444,0.87977,0.49374
114219516,0.91398,0.10981
114247596,0.62561,-0.17323
114276716,1.42229,0.22704
114304796,0.93353,-0.44537
114333916,0.42033,-0.11139
114363032,1.58358,0.64601
114391124,1.66667,-0.24321
114420236,1.55914,-0.25323
114449356,1.64223,0.05449
114477432,0.21994,-0.31503
114506516,0.00000,0.55261
114534604,0.00000,0.35323
114562680,0.00000,-0.06767
114591808,0.00000,-0.25348
114620920,0.00000,-0.22563
114650044,0.00000,-0.10888
114679164,0.00000,0.00148
114707240,0.00000,0.06440
114735352,0.40567,0.19368
114763436,1.66178,0.26548
114791524,3.02542,-0.11698
114820632,4.28641,-0.31979
114849756,4.98534,-0.35253
114878876,5.00000,-0.14579
114908000,5.00000,0.31854
114936076,5.00000,0.42194
114964152,5.00000,0.25588
114992244,4.99511,0.02984
115020316,4.83871,-0.16508
115049440,4.93646,-0.08618
115078560,3.70968,-0.50614
115107684,3.32356,0.23832
115135760,3.49951,0.35236
115163840,3.57771,-0.05445
115192964,3.64614,-0.20559
115222076,3.77322,-0.13920
115251196,3.91007,-0.04691
115280320,3.97849,0.00856
115308400,3.91007,0.03533
115336480,3.56305,0.02278
115364560,3.28446,0.14439
115392644,3.20626,0.17302
115420724,3.14761,0.02062
115448800,3.12317,-0.07826
115477920,3.10362,-0.10878
115507040,3.04497,-0.09224
115536160,2.97165,-0.03256
115565280,2.88368,0.01605
115593368,2.82014,0.04893
115621440,2.83480,0.05982
115649524,2.77615,-0.01051
115678644,2.71261,-0.01263
115707764,2.57576,-0.02219
115736884,2.43891,0.01046
115764960,2.41447,0.05322
115793048,2.48289,0.02907
115821120,2.60020,-0.02326
115850248,2.46823,-0.12803
115879364,2.39980,-0.00330
115908480,2.41447,0.06897
115936560,3.21603,0.25927
115964640,2.68817,-0.44724
115993764,2.38514,-0.02600
116022880,2.67840,0.32981
116050968,2.81525,0.05239
116079040,2.82991,-0.10654
116108160,2.88368,-0.06212
116137292,2.88856,-0.03526
116166404,2.88368,0.00522
116194488,2.63441,-0.04271
116223604,2.34115,0.03439
116251692,2.18964,0.11781
116279764,2.23851,0.09863
116307844,2.35582,-0.02637
116336968,2.45357,-0.11498
116366080,2.51222,-0.10690
116395204,2.46334,-0.06303
116424320,2.39980,0.03113
116452404,2.35093,0.08053
116480480,2.33627,0.07438
116508560,2.26295,0.00808
116536648,2.16520,-0.01362
116565760,2.01369,-0.02407
116594888,1.97947,0.03156
116622960,1.99902,0.01040
116651040,2.26295,0.03612
116679116,2.40469,-0.09701
116708236,2.50244,-0.08483
116737360,2.54643,-0.02410
116766476,2.28250,-0.04261
116795596,2.15543,0.13013
116823676,2.11632,0.13529
116851764,2.42913,0.12886
116879836,2.33627,-0.19106
116908956,1.02151,-0.46078
116938072,1.13881,0.50964
116966152,1.22678,0.20962
116994244,1.55914,-0.02802
117023356,1.84751,-0.22482
117052480,2.08211,-0.20922
117081596,2.35582,-0.05762
117110720,2.50244,0.00674
117138796,2.07234,-0.06714
117167920,1.68622,0.17837
117195996,1.73998,0.34232
117224076,1.88661,0.10346
117252164,2.36070,-0.03111
117281276,2.58065,-0.28571
117310400,2.69306,-0.22029
117339520,2.69795,-0.06103
117368636,2.75171,0.10633
117396716,2.73705,0.10744
117424796,2.71750,0.08527
117452884,2.89834,0.09849
117480960,2.77126,-0.10720
117510080,2.28250,-0.15298
117539200,2.12121,0.13256
117567288,2.37048,0.19852
117595364,2.81525,0.01025
117623444,3.04008,-0.23617
117652568,3.09873,-0.20243
117681680,2.88856,-0.08362
117710800,2.88856,0.18714
117738880,2.96676,0.18377
117766960,3.09384,0.07235
117795040,3.91984,0.16385
117823116,2.32649,-0.82088
117852244,2.14076,0.38671
117880320,1.87195,0.30582
117908400,1.75953,0.11026
117936484,1.71065,-0.08174
117965600,1.82796,-0.12101
117994716,2.09189,-0.10903
118023836,2.20919,-0.15209
118052964,1.83773,-0.17706
118082076,0.86999,-0.06737
118111196,0.04399,0.30931
118139240,0.00000,0.52462
118167356,0.38123,0.17857
118195436,0.88465,-0.23921
118224552,1.10948,-0.46360
118253680,1.13392,-0.29669
118282796,0.88465,-0.05473
118311908,1.00684,0.31589
118339996,1.34409,0.28606
118368076,1.57869,0.02231
118396156,1.71554,-0.09943
118425276,1.74976,-0.09313
118454400,1.44673,-0.10302
118483516,1.56403,0.18316
118511596,1.80352,0.11089
118539676,1.90127,-0.08767
118568796,2.14076,-0.05149
118597916,2.15543,-0.12002
118627036,1.63734,-0.16689
118656164,1.49071,0.20615
118684236,1.79374,0.28807
118712324,2.17009,0.01767
118740396,2.25806,-0.24501
118769524,1.58847,-0.35453
118798648,1.97947,0.36249
118826720,1.67644,-0.04284
118855852,1.35875,-0.00465
118884960,1.58358,0.20730
118913040,2.02346,0.06053
118941116,2.33138,-0.18151
118970240,2.22385,-0.27863
118999372,1.66178,-0.14893
119028476,0.88465,0.11387
119056568,0.02444,0.25316
119084600,0.00000,0.45944
119112684,0.00000,0.01306
119140760,0.00000,-0.26353
119169880,0.00000,-0.27480
119199012,0.00000,-0.15027
119228124,0.00000,-0.01440
119257248,0.00000,0.07070
119285320,0.00000,0.09581
119313396,0.00000,0.07910
119341484,0.00000,0.04490
119369564,0.00000,0.01192
119397680,0.00489,-0.00886
119426760,0.00000,-0.02306
119455884,0.00000,-0.01870
119485000,0.00000,-0.01322
119514160,0.00489,-0.00586
119543272,0.45455,0.12346
119571356,0.74780,-0.08522
119600476,1.16325,-0.06164
119629600,1.34897,-0.11441
119658724,1.46628,-0.01261
119687840,1.95015,0.18881
119715916,1.03128,-0.33429
119745036,1.63245,0.52358
119773120,1.93548,0.07226
119801196,2.23851,-0.14011
119830316,2.58553,-0.14786
119859432,2.79081,-0.13791
119888552,2.58065,-0.13391
119917680,2.39980,0.10494
119945752,2.05279,0.12620
119973832,1.84751,0.17112
120001912,2.15054,0.19835
120029996,2.45846,-0.09128
120059120,2.73216,-0.22343
120088236,2.88856,-0.19762
120117364,2.42913,-0.21440
120146484,1.73509,0.05708
120174556,1.04594,0.27496
120202636,0.61584,0.31851
120230716,0.42033,0.13996
120258792,0.39101,-0.08001
120287912,0.33236,-0.23983
120317040,0.31281,-0.19285
120346160,0.04399,-0.16194
120375240,0.00000,0.09431
120403320,0.00000,0.12158
120431440,0.01466,0.06895
120459520,0.01955,0.01583
120487596,0.29814,0.07412
120515680,0.29326,-0.11158
120544792,0.01955,-0.12322
120573916,0.01466,0.12126
120601996,0.18573,0.13428
120630072,1.22190,0.23908
120658152,0.49853,-0.65426
120687272,0.39101,0.04737
120715360,0.69404,0.31698
120743436,0.73314,0.02643
120771512,0.82111,-0.02716
120800632,1.18768,0.03713
120828716,1.77908,0.00575
120856796,2.28739,-0.13000
120885912,2.60020,-0.15594
120915044,2.47801,-0.12691
120944156,2.40469,0.14230
120972236,2.39492,0.22021
121000316,2.53177,0.16117
121028396,2.54643,-0.04460
121057512,2.59531,-0.08081
121086636,2.61975,-0.08545
121115768,2.61975,-0.05706
121144884,2.62463,-0.01134
121174008,2.60508,0.00618
121202088,2.61975,0.03155
121230168,2.55621,-0.00292
121259288,2.49756,0.01387
121287368,2.43402,0.01604
121315452,2.35093,0.00437
121343524,2.23851,-0.00592
121372644,2.02835,-0.02620
121401764,1.86706,0.02543
121429840,1.89150,0.07186
121457920,1.99902,0.00731
121485996,2.04790,-0.08241
121515124,1.97458,-0.09742
121544236,2.05767,0.03966
121572316,2.05279,0.01053
121600400,3.39687,0.40493
121628472,2.00391,-0.87351
121657592,2.11632,0.35460
121685672,2.26784,0.32663
121713764,2.17498,-0.00694
121742876,1.51026,-0.23450
121772000,0.24927,-0.17611
121801080,0.00000,0.45186
121829192,0.41544,0.33507
121857272,0.99218,-0.14768
121886396,0.44477,-0.70758
121915524,0.02933,-0.16394
121944600,0.00000,0.28691
121972716,0.06354,0.24032
122000792,0.46432,0.15985
122028876,1.12903,0.00741
122056952,1.57869,-0.22673
122086072,2.00880,-0.14923
122115204,2.31183,-0.04689
122144320,2.22874,-0.02610
122173444,1.95992,0.10222
122201516,1.73998,0.21361
122229592,1.51515,0.14004
122257676,1.65689,0.12273
122285756,2.27761,0.03297
122313844,3.04497,-0.19477
122342956,3.32845,-0.42278
122372076,3.11828,-0.27970
122401192,3.02053,0.17453
122429276,2.82014,0.26322
122457356,2.68817,0.23590
122485440,2.45357,0.05905
122513524,2.29228,-0.00547
122542640,2.33138,-0.01652
122571760,3.32356,0.15965
122599840,3.14761,-0.54040
122628964,2.99609,-0.19781
122658080,3.36266,0.25905
122686164,3.46530,0.08516
122714244,3.62170,0.06569
122742316,3.59726,-0.02139
122771436,3.64614,0.03896
122799512,4.12512,0.14747
122827596,4.50147,-0.07174
122856712,4.16911,-0.32199
122885836,3.47507,-0.11494
122914964,1.79863,-0.08101
122944080,0.22483,0.36636
122972120,0.00000,0.75115
123000200,0.00000,0.08117
123028280,0.00000,-0.44383
123057400,0.00000,-0.49500
123086524,0.00000,-0.27838
123115648,0.00000,-0.02760
123144796,2.33138,0.79438
123172880,4.97067,0.05599
123200948,4.62854,-1.31066
123230076,2.70283,-0.58669
123259204,2.70283,1.33865
123287280,4.12023,1.32162
123315364,4.56012,-0.24522
123344472,4.58944,-0.68283
123373600,4.51124,-0.41152
123402716,4.48192,-0.05310
123431836,4.55523,0.12335
123459916,4.99511,0.19845
123487992,5.00000,-0.12318
123517120,5.00000,-0.05904
123546236,5.00000,0.02706
123574324,4.99511,0.05310
123602400,4.99511,0.04123
123630476,5.00000,0.01413
123658564,5.00000,-0.01121
123687676,5.00000,-0.01928
123716804,5.00000,-0.01676
123745924,5.00000,-0.00975
123775052,5.00000,-0.00267
123804160,5.00000,0.00219
123832240,5.00000,0.00434
123860324,5.00000,0.00440
123888404,5.00000,0.00328
123916496,4.81427,-0.05085
123945600,3.61193,-0.27061
123974724,2.53177,0.17451
124002792,2.23851,0.50146
124030876,2.59042,0.26816
124058956,3.15738,-0.20259
124088076,3.45064,-0.51099
124117196,3.65591,-0.32788
124146320,3.96872,0.01109
124174404,4.11535,0.10643
124202480,3.67058,0.01972
124230556,2.92278,0.13686
124258636,2.39980,0.33333
124286716,2.33138,0.30465
124314808,2.50244,0.00434
124342876,2.75660,-0.24870
124372004,2.95699,-0.31897
124401116,2.83480,-0.27708
124430236,2.12610,-0.16065
124459360,0.86510,0.05933
124487436,0.25415,0.55435
124515524,1.15347,0.71837
124543596,0.60117,-0.56825
124572724,1.46139,-0.01966
124601836,1.87683,-0.34276
124630956,1.31965,-0.49539
124660076,0.38612,-0.03216
124689196,0.45455,0.68183
124717276,1.27077,0.54185
124745356,2.02835,-0.12169
124774480,2.37537,-0.48738
124803596,2.15543,-0.41564
124832716,1.78886,0.01052
124860796,1.47116,0.29562
124888876,1.65689,0.41220
124916956,2.13099,0.15387
124945036,2.54643,-0.19212
124974160,3.02542,-0.23613
125003276,3.44086,-0.18224
125032396,3.33333,-0.19216
125061512,2.54154,-0.08997
125090636,1.87683,0.32218
125118720,1.99413,0.55578
125146800,2.54154,0.20295
125174888,2.76637,-0.36050
125204000,3.06940,-0.33154
125233120,3.18671,-0.22788
125262240,2.50244,-0.22828
125291364,1.77419,0.18565
125319444,1.72532,0.53798
125347524,2.11144,0.30906
125375604,2.27761,-0.20691
125404720,2.35582,-0.31045
125433840,3.42131,0.11212
125461916,1.41740,-0.97862
125491036,1.61290,0.72043
125519116,2.11144,0.56459
125547200,2.50733,-0.02772
125576328,2.79570,-0.28662
125605440,2.81036,-0.29080
125634568,2.69795,-0.07951
125663676,2.65885,0.13768
125691756,2.56109,0.13551
125719836,2.38025,0.06624
125747920,2.37537,0.08433
125776008,2.47312,0.01214
125804088,2.70772,-0.04378
125833208,2.98631,-0.09749
125862320,3.07918,-0.15034
125891444,3.03519,-0.06818
125920564,2.97165,0.06425
125948640,2.64907,0.04050
125976724,2.13099,0.05406
126004800,0.80645,-0.11468
126033928,0.01466,0.30654
126061960,0.00000,0.38256
126090076,0.11730,-0.07437
126119196,0.70870,-0.21694
126148316,1.31476,-0.35608
126177444,1.33920,-0.42378
126206556,0.62561,-0.21302
126235680,0.55230,0.50233
126263760,1.37341,0.66026
126291836,1.75464,-0.05884
126320960,2.09677,-0.23750
126350076,2.39980,-0.17551
126379200,1.91593,-0.27267
126408316,0.78690,-0.08070
126437444,0.00978,0.41110
126465512,0.13685,0.57096
126493596,1.00684,0.19921
126521676,1.91105,-0.39386
126550792,2.64907,-0.57076
126579912,2.04790,-0.68045
126609032,1.17302,0.04951
126637120,1.32454,0.83512
126665196,1.64223,0.47984
126693276,1.77908,-0.07144
126722396,2.14076,-0.16701
126751516,1.75953,-0.42558
126780636,0.65982,-0.29064
126809756,0.50831,0.46756
126837844,1.31965,0.52753
126865916,2.13099,-0.11020
126895036,2.79081,-0.42881
126924160,3.07918,-0.39771
126953276,2.42424,-0.29317
126982396,1.64712,0.24702
127010476,1.77908,0.72972
127038560,2.22874,0.35089
127066632,2.32649,-0.26301
127095752,2.59042,-0.26519
127124876,2.42913,-0.31656
127154000,2.05279,-0.10813
127183116,2.30694,0.31460
127211204,2.52688,0.12444
127239284,2.45357,-0.11579
127268400,2.48778,-0.02035
127297516,2.36070,-0.03536
127326636,3.27468,0.32303
127354716,1.98436,-0.67244
127383836,0.70381,-0.02802
127412956,0.00489,0.53572
127441004,0.00000,0.48866
127469080,0.00000,-0.07988
127498196,0.00000,-0.35137
127527320,0.00000,-0.31329
127556444,0.00000,-0.14367
127585608,0.00489,0.01703
127613676,0.00978,0.10318
127641760,0.04888,0.12799
127669832,0.21994,0.12352
127697916,0.43500,0.03696
127725992,0.60117,-0.05067
127755112,0.73314,-0.05827
127784232,0.81134,-0.03481
127813356,0.98729,0.03996
127841444,0.98729,-0.03052
127870552,1.12903,0.05168
127898640,1.19257,-0.00391
127927756,1.37830,0.02713
127955836,1.52981,-0.02544
127984964,1.67155,-0.03423
128014076,1.82796,-0.01241
128043204,2.05279,0.01890
128071276,2.06256,-0.06107
128100400,2.10166,0.01919
128128472,2.15054,0.04950
128156556,2.09677,0.00390
128184644,3.26491,0.36209
128212716,1.74976,-0.85898
128241840,2.16520,0.48462
128269912,2.30205,0.18909
128298004,2.41935,-0.04002
128327116,2.44868,-0.13202
128356240,2.52688,-0.06093
128385364,2.57576,-0.02271
128414480,2.55132,-0.00585
128443596,2.28250,-0.03288
128472720,1.90616,0.03663
128500804,1.73509,0.15779
128528876,1.77419,0.11780
128556956,1.75464,-0.07036
128586076,1.72043,-0.12070
128615196,1.79863,-0.04835
128644320,1.97458,-0.00503
128673436,2.31183,0.02660
128701524,2.51711,-0.06278
128730640,2.65396,-0.03733
128759756,2.73216,0.02029
128787836,2.69306,0.03736
128815916,2.44868,0.01882
128843996,2.36070,0.12479
128872080,2.27273,0.05570
128900168,2.27273,0.00240
128928240,2.06256,-0.12735
128957364,2.07234,0.00113
128985440,2.09189,-0.01690
129014560,2.47312,0.06905
129042640,2.44379,-0.17205
129071756,1.72532,-0.24968
129100880,2.01857,0.40477
129128956,2.05279,0.09263
129157040,1.97458,-0.07839
129186156,1.77908,-0.09619
129215280,1.56403,-0.01632
129244396,1.37830,0.04279
129272472,1.18768,0.03166
129300560,0.88954,-0.02333
129329676,0.69892,0.02940
129357756,0.88954,0.10802
129385836,1.10948,-0.04914
129414960,1.29521,-0.13269
129444080,1.35875,-0.12102
129473196,1.33920,-0.02223
129502324,1.17302,0.03979
129530392,0.94819,0.09896
129558476,0.74291,0.11519
129586556,0.42522,0.02649
129614640,0.05865,-0.00996
129643716,0.00000,0.07474
129671796,0.00000,-0.03268
129700924,0.00000,-0.11198
129730044,0.00000,-0.09883
129759168,0.00000,-0.04075
129788284,0.00000,0.01392
129816360,0.00000,0.04305
129844440,0.00000,0.04626
129872516,0.00000,0.03346
129900636,0.80645,0.24437
129928716,0.01955,-0.52475
129957836,0.04888,0.16585
129985912,0.37634,0.25610
130013996,0.74291,0.02980
130042072,1.02151,-0.14171
130071196,1.30987,-0.11237
130100324,1.62268,-0.03214
130129440,1.89150,0.00387
130157520,1.96481,-0.01394
130186636,1.88172,0.02223
130214716,1.96481,0.14460
130242796,2.05767,0.07479
130270876,2.09677,-0.02812
130300000,2.13099,-0.05266
130329116,2.10655,-0.05999
130358236,2.02835,-0.03569
130387356,2.08211,0.04721
130415436,2.29717,0.05872
130443524,2.91789,0.08496
130471596,4.16422,0.08051
130499680,4.98045,-0.31966
130528792,5.00000,-0.41995
130557916,5.00000,0.07304
130585992,5.00000,0.32358
130614072,5.00000,0.28622
130642152,5.00000,0.12483
130670232,5.00000,-0.02510
130699360,5.00000,-0.10567
130728476,5.00000,-0.11709
130757600,5.00000,-0.08586
130786724,5.00000,-0.04126
130815844,3.32356,-0.47848
130844960,1.90127,0.24514
130873036,1.17302,0.62368
130901120,0.96774,0.34603
130929196,1.53959,0.01948
130957272,2.29717,-0.41236
130986396,2.96188,-0.53780
131015516,3.36755,-0.35766
131044636,3.51906,-0.03169
131073760,3.38710,0.20759
131101840,3.28446,0.38433
131129916,3.37243,0.35989
131157996,3.40665,0.08961
131186076,3.19648,-0.15078
131215196,2.94233,-0.13285
131244320,2.89834,-0.00294
131273444,2.77615,-0.06613
131302568,2.64418,-0.06224
