ECG,ECG_Filtered
500.000,0.00055
500.000,0.00137
500.000,0.00136
500.000,0.00091
500.000,0.00043
500.000,0.00004
500.000,-0.00016
500.000,-0.00022
500.000,-0.00019
498.045,-0.00566
460.899,-0.09800
417.889,0.02059
360.215,0.05624
260.997,-0.02549
146.139,0.05085
0.80645,0.25656
0.71848,0.18484
0.76735,-0.15334
0.47410,-0.41518
0.02933,-0.24969
0.00000,0.15130
0.00000,0.14214
0.00000,0.06294
0.00000,0.01944
0.13685,0.04680
229.228,0.56793
418.866,-0.28495
448.680,-0.95906
350.440,-0.51919
296.188,0.63554
193.548,0.61519
0.20528,0.24588
0.00000,0.63085
0.21505,0.02239
186.706,-0.15298
385.630,-0.65195
498.045,-0.99166
499.511,-0.62275
447.214,0.22141
302.542,0.55487
158.358,0.84235
0.89932,0.81227
103.128,0.30274
0.82600,-0.58326
0.35191,-0.76101
0.00000,-0.36871
0.00000,0.03722
0.00000,0.07888
0.00000,0.07740
0.23460,0.14779
141.740,0.32635
409.091,0.33959
500.000,-0.88071
499.511,-0.63999
499.511,0.24415
397.849,0.30095
384.653,0.80363
416.911,0.46672
479.961,-0.07985
499.022,-0.59758
499.511,-0.48540
474.585,-0.20423
408.113,0.00182
347.996,0.28410
288.856,0.28018
260.997,0.22277
279.081,0.09200
331.378,-0.11337
360.704,-0.37182
343.597,-0.36523
230.205,-0.25832
0.35679,0.08059
0.00000,0.99412
0.00000,0.46298
0.00000,-0.23437
0.00000,-0.47421
0.00000,-0.36583
0.92375,0.12071
176.931,-0.06247
184.262,-0.30975
196.970,0.08112
120.723,0.02282
0.20528,0.26153
0.50342,0.73606
456.989,116.685
500.000,-170.921
500.000,-113.254
344.086,-0.40602
0.42033,0.31582
0.00000,183.106
0.00000,0.82494
0.39101,-0.25114
189.150,-0.51773
0.49365,-167.172
0.00000,-0.11860
0.00000,0.60257
0.00000,0.44133
0.00000,0.16854
0.00000,-0.00329
0.00000,-0.06594
0.43011,0.05819
415.933,0.85797
500.000,-124.225
499.022,-0.88343
499.511,0.21329
499.511,0.67196
500.000,0.56607
500.000,0.23537
500.000,-0.05443
500.000,-0.20479
500.000,-0.22291
500.000,-0.16168
491.202,-0.10164
301.564,-0.50988
0.22483,-0.02869
0.00000,133.226
0.00000,0.42688
0.00000,-0.42915
0.00000,-0.63508
0.00978,-0.41822
0.66960,0.07768
120.235,0.02465
120.235,-0.09234
122.678,0.16468
150.049,0.32780
151.515,0.09400
175.953,0.09285
203.812,-0.02577
228.739,-0.11589
239.492,-0.14764
260.997,-0.01714
281.525,0.00894
310.362,0.03782
338.221,0.00273
358.749,-0.03090
360.215,-0.05341
323.069,-0.07115
271.261,0.06294
224.340,0.16997
182.307,0.12202
156.892,0.04693
148.583,-0.04586
147.116,-0.13368
148.583,-0.14130
143.695,-0.10530
182.307,0.11931
242.424,0.08459
294.233,-0.07302
348.974,-0.05464
392.473,-0.03446
492.180,0.20993
388.074,-0.54582
445.259,0.56762
464.809,0.18612
474.096,-0.05939
459.433,-0.17006
432.063,-0.09714
406.647,0.02645
380.254,0.04770
347.019,0.00399
312.317,-0.00607
285.435,0.01496
286.413,0.06117
268.817,-0.11019
236.559,-0.11885
193.060,-0.02892
102.151,-0.05540
0.15152,0.15166
0.01955,0.38304
0.00978,0.05061
0.00000,-0.21453
0.00000,-0.23590
0.00000,-0.12990
0.00000,-0.00746
0.00000,0.07009
0.00000,0.09177
0.00000,0.07410
0.41544,0.15807
135.875,0.11992
194.526,-0.26705
217.498,-0.29766
237.537,-0.01377
253.666,0.14876
306.452,0.27621
312.805,-0.06235
226.784,-0.29537
173.021,0.18525
0.31281,-0.03611
0.00000,0.46867
0.00000,0.15468
0.00000,-0.26308
0.18084,-0.30658
192.571,0.19804
309.873,-0.39845
320.626,-0.59504
299.609,-0.00411
241.935,0.38016
132.454,0.39822
0.17107,0.40170
0.00000,0.49852
0.00000,-0.06847
0.00000,-0.46071
0.00000,-0.46404
0.00000,-0.25732
0.00000,-0.03159
0.00000,0.11311
0.00000,0.15966
0.00000,0.13589
0.00000,0.08097
147.116,0.44306
334.800,-0.03221
434.995,-0.68696
455.034,-0.54614
434.018,0.03493
396.383,0.44373
368.524,0.52585
364.614,0.33270
333.822,-0.11859
369.013,-0.03516
218.475,-0.78143
165.200,0.15459
233.627,0.55183
334.311,0.04655
388.074,-0.50505
370.479,-0.52295
346.041,0.02379
349.951,0.42734
368.035,0.36113
342.620,-0.02198
284.457,-0.12421
277.615,0.16125
246.334,-0.05680
213.099,-0.09292
171.554,-0.08676
0.30303,-0.30513
0.00000,0.41938
0.00000,0.25574
0.00000,-0.11599
0.00000,-0.24135
0.01955,-0.16602
180.841,0.45651
377.810,-0.06145
453.568,-0.71682
429.619,-0.45122
352.884,0.21409
279.570,0.68561
198.925,0.55006
164.223,0.34203
187.195,0.02262
227.761,-0.38047
258.065,-0.54763
257.576,-0.43478
180.352,-0.26317
272.239,0.74444
188.661,-0.21517
306.452,0.62027
442.326,0.10845
498.045,-0.55230
499.511,-0.43360
500.000,0.08341
499.511,0.31119
499.022,0.26791
484.360,0.07243
438.905,-0.10237
383.675,-0.06541
360.704,0.09345
349.462,0.00876
318.182,-0.17034
264.418,-0.17376
225.318,0.04076
196.481,0.10454
183.284,0.08561
208.700,0.08868
235.093,-0.09134
260.020,-0.14260
271.750,-0.11313
277.615,0.00556
280.547,0.09254
281.036,0.10610
291.300,0.10497
279.570,-0.04449
237.048,-0.10785
188.661,0.01182
214.076,0.28974
245.846,0.00710
259.531,-0.24306
254.643,-0.22635
211.144,-0.13485
276.149,0.43783
112.414,-0.53787
150.538,0.65130
175.953,0.19731
187.195,-0.20392
174.487,-0.30166
163.245,-0.10007
165.200,0.08266
166.178,0.07671
167.155,0.04179
150.538,-0.03591
143.695,0.04284
141.251,0.04155
150.049,0.02823
153.959,-0.05213
149.560,-0.07540
137.830,-0.03700
118.280,0.00782
118.280,0.11207
122.678,0.04806
138.807,0.00246
173.021,-0.01343
220.919,-0.04519
253.177,-0.13440
265.396,-0.10364
265.885,0.02184
267.351,0.13362
254.643,0.08526
238.514,0.06143
234.604,0.06514
231.672,-0.02036
214.076,-0.11567
194.037,-0.06836
174.976,-0.00368
235.582,0.24552
147.605,-0.47592
106.549,0.07708
127.077,0.36442
135.875,0.03164
130.499,-0.16132
144.184,-0.05418
155.425,-0.04639
173.998,0.00495
179.863,-0.02752
165.689,-0.03194
138.807,0.03321
137.341,0.17684
144.184,0.08742
163.245,-0.01084
166.178,-0.15110
166.667,-0.09829
174.487,0.00963
178.886,0.01994
187.195,0.03942
184.751,-0.00890
187.683,0.03030
192.082,0.02372
194.526,-0.00540
199.902,-0.00310
214.565,0.01394
241.447,0.01262
248.778,-0.09812
269.795,0.00780
282.991,-0.00697
269.306,-0.05977
254.643,0.04861
254.643,0.13140
238.514,0.00050
386.119,0.45007
238.025,-100.337
277.615,0.37177
234.604,0.02681
0.51320,-0.33044
0.00489,0.59083
0.00000,0.42218
0.00000,-0.13517
0.00000,-0.36637
0.00000,-0.29906
0.00000,-0.11906
0.00000,0.03695
0.00000,0.11583
0.00000,0.12271
0.00000,0.08729
0.00000,0.04005
0.00000,0.00112
0.00000,-0.02136
0.03421,-0.01839
402.737,109.487
499.022,-124.628
500.000,-100.520
500.000,0.13561
499.511,0.66771
500.000,0.60141
499.511,0.27129
500.000,-0.02824
500.000,-0.19889
500.000,-0.22791
500.000,-0.17039
500.000,-0.08454
500.000,-0.01031
499.511,0.03342
446.237,-0.09869
260.997,-0.27898
177.419,0.57389
198.436,0.64608
216.520,-0.10527
286.901,-0.30339
401.760,-0.31352
470.674,-0.46988
457.478,-0.35995
390.029,0.08522
341.153,0.57810
315.249,0.56037
297.654,0.20283
251.711,-0.20590
217.498,-0.19497
202.346,-0.11073
234.604,0.00988
335.288,0.05880
395.894,-0.32457
391.496,-0.37882
389.052,0.08311
359.238,0.22958
347.996,0.35533
420.821,0.42627
497.556,-0.06484
500.000,-0.53233
492.180,-0.25039
283.969,-0.50203
150.049,0.57162
326.002,145.617
358.260,-0.46491
490.714,-0.45566
499.511,-0.87485
499.022,-0.24017
493.157,0.26817
499.511,0.45933
500.000,0.28910
499.511,0.09599
426.686,-0.24415
194.526,-0.48718
0.24927,0.40056
0.04399,0.82207
0.71359,0.22612
238.514,-0.29847
431.085,-0.73101
497.556,-103.449
498.534,-0.33370
474.096,0.45621
447.214,0.77822
390.518,0.52091
337.243,0.27228
318.182,0.08746
360.215,-0.05616
445.748,-0.27414
497.556,-0.56285
497.067,-0.47010
455.034,-0.08839
368.524,0.20924
394.428,0.76873
263.441,-0.17963
203.812,0.19902
204.301,0.23087
180.352,-0.22709
183.284,-0.21469
180.352,-0.22005
169.110,-0.12742
0.76246,-0.20618
0.01466,0.23479
0.00000,0.51312
0.00000,0.11731
0.00000,-0.16129
0.00000,-0.21189
0.00000,-0.13359
0.00000,-0.03106
0.00000,0.03943
0.00000,0.06523
0.00000,0.05759
0.21505,0.09538
410.557,103.253
498.534,-125.133
499.511,-0.95190
500.000,0.15539
500.000,0.65212
500.000,0.57069
500.000,0.25218
500.000,-0.04047
500.000,-0.19783
478.006,-0.28419
184.751,-0.91263
0.05376,0.54739
0.00000,110.579
0.00000,0.09889
0.00000,-0.53234
0.00000,-0.56478
0.00000,-0.29465
0.00000,-0.00293
0.00000,0.17349
0.00000,0.21743
0.00000,0.17189
0.00000,0.09177
0.00000,0.01804
0.19062,0.02461
294.721,0.66176
494.135,-0.54508
500.000,-119.302
499.511,-0.13205
500.000,0.56642
500.000,0.62154
461.388,0.23714
304.008,-0.26561
211.144,0.22784
239.492,0.43361
255.621,-0.26471
270.772,-0.51070
302.053,-0.33047
307.429,-0.20871
260.997,-0.08044
269.306,0.41541
323.558,0.42570
345.064,-0.04135
463.343,0.15467
379.765,-0.73759
496.579,0.48559
500.000,-0.16166
499.511,-0.06336
408.113,-0.17435
236.559,-0.03421
114.370,0.50114
0.65494,0.52338
0.74291,0.09987
143.206,-0.25818
261.486,-0.42429
366.569,-0.53314
380.254,-0.51700
346.041,0.01117
293.744,0.47515
259.042,0.63407
256.109,0.44238
263.441,0.02725
283.480,-0.22587
235.582,-0.51370
175.953,-0.21404
143.206,0.15786
143.695,0.24088
196.481,0.17451
262.463,-0.10265
282.991,-0.36476
247.312,-0.28352
183.773,0.06070
182.307,0.50412
239.980,0.41335
319.159,-0.01920
341.153,-0.47804
293.744,-0.44925
345.064,0.34540
156.403,-0.47371
191.105,0.85546
238.514,0.35819
303.030,-0.16139
370.479,-0.38783
471.652,-0.22227
499.511,-0.36036
500.000,-0.04505
500.000,0.28430
500.000,0.33132
481.427,0.14514
363.148,-0.23333
239.003,0.04210
174.487,0.34126
160.802,0.18705
191.105,-0.10726
235.093,-0.35836
286.413,-0.34810
352.395,-0.14394
412.512,-0.01513
456.989,0.07183
493.646,0.16457
499.022,0.11161
499.511,0.15676
500.000,0.13177
500.000,0.03886
500.000,-0.04764
500.000,-0.09216
460.899,-0.20304
414.956,-0.04799
399.804,0.16348
401.760,0.10844
460.411,0.10937
334.311,-0.68129
366.080,0.39977
369.501,0.12290
349.951,-0.09589
306.452,-0.11146
231.183,-0.04959
141.740,0.08671
108.504,0.32153
111.437,0.15760
107.038,-0.18843
0.90420,-0.28518
0.21017,-0.29040
0.00000,0.19183
0.00000,0.23149
0.00000,0.04697
0.34213,0.03972
0.86022,-0.04775
132.942,-0.14808
178.886,-0.09996
244.379,0.05008
321.603,0.07479
385.630,-0.02072
408.602,-0.10928
405.181,-0.00177
395.406,0.14733
388.074,0.17495
386.119,0.09159
404.692,0.02178
415.445,-0.14550
374.389,-0.29772
363.636,0.04633
360.704,0.10752
367.058,0.06361
474.585,0.26465
306.452,-0.92291
336.266,0.52695
345.064,0.27033
335.777,-0.04965
310.362,-0.14016
287.390,-0.03759
260.997,0.00953
207.722,-0.04533
0.87488,-0.14258
0.02444,0.23354
0.00000,0.41022
0.08309,-0.01913
0.41544,-0.22372
0.62072,-0.33897
0.51320,-0.26669
0.24927,-0.00450
0.01955,0.22513
0.09775,0.32370
0.68426,0.25289
145.161,-0.04766
213.099,-0.27334
291.300,-0.18370
309.873,-0.24506
209.189,-0.26102
0.23460,0.09685
0.00000,103.290
0.00000,0.42927
0.00000,-0.25975
0.00000,-0.49389
0.41544,-0.26866
0.86999,-0.18815
0.91887,-0.19386
114.858,0.13239
108.993,0.12681
141.251,0.30028
108.504,-0.05946
269.306,0.58115
406.647,-0.16510
474.096,-0.62536
475.073,-0.43602
457.967,0.10503
443.304,0.41240
421.310,0.32932
392.473,0.12618
343.597,-0.08072
310.850,-0.04860
297.654,-0.04371
298.631,-0.09063
298.143,-0.14925
284.946,-0.14060
199.902,-0.21339
0.52786,-0.03357
0.00978,0.60334
0.00000,0.41303
0.03421,-0.10803
0.36657,-0.25712
0.93353,-0.24732
124.145,-0.28780
105.572,-0.19745
0.79668,0.14633
0.79179,0.38227
0.77713,0.22661
0.63050,0.00338
0.83578,0.04117
0.84555,-0.15696
0.64516,-0.19098
0.57674,-0.00025
0.40078,0.01141
127.077,0.33915
0.53275,-0.50991
0.59629,0.13170
0.89443,0.21044
0.97263,-0.04248
0.99707,-0.07909
130.499,0.05842
144.184,-0.05602
153.470,-0.04099
183.284,0.07233
220.919,0.04079
251.222,-0.04884
301.564,0.01964
338.221,-0.06241
337.732,-0.12765
342.620,0.06853
346.530,0.11988
299.120,-0.06417
0.87977,-0.40037
0.00978,0.60058
0.00000,0.58685
0.00000,-0.12203
0.00000,-0.45796
0.00000,-0.39910
0.00000,-0.17498
0.00000,0.03154
0.00000,0.14302
0.00000,0.16011
0.00000,0.11880
0.00000,0.05861
0.00000,0.00685
0.00000,-0.02449
0.00000,-0.03530
0.00000,-0.03170
0.00000,-0.02122
0.00000,-0.00992
0.00000,-0.00130
0.00000,0.00355
0.00000,0.00508
0.00000,0.00445
0.00000,0.00287
0.00000,0.00125
0.00000,0.00006
0.00000,-0.00058
0.00000,-0.00074
0.00000,-0.00062
0.00000,-0.00038
141.740,0.40163
482.893,0.43530
500.000,-145.933
499.511,-0.51153
500.000,0.43390
500.000,0.67814
500.000,0.46505
500.000,0.13147
500.000,-0.11739
500.000,-0.22120
500.000,-0.20753
500.000,-0.13361
500.000,-0.05041
500.000,0.01196
500.000,0.04394
500.000,0.04976
500.000,0.03953
500.000,0.02341
500.000,0.00853
500.000,-0.00155
463.832,-0.10891
495.601,0.21863
447.214,-0.20365
330.401,-0.23001
304.985,0.41227
355.327,0.39786
469.208,0.04026
500.000,-0.64723
500.000,-0.43945
500.000,0.04332
500.000,0.27751
500.000,0.26827
500.000,0.14691
499.511,0.01983
499.022,-0.05717
460.411,-0.18982
406.647,-0.07798
361.681,0.09284
351.417,0.18287
268.817,-0.21454
124.145,-0.22457
0.19550,0.24519
0.01466,0.44595
0.00000,0.00861
0.00000,-0.30127
0.00000,-0.30445
0.00000,-0.14441
0.00000,0.02153
0.00000,0.11640
0.40078,0.24677
143.695,0.24274
181.329,-0.29819
318.671,0.11443
418.377,-0.18145
489.247,-0.19979
500.000,-0.13625
500.000,0.18010
500.000,0.30653
500.000,0.20784
440.860,-0.12973
257.576,-0.38705
0.95797,0.18680
0.07820,0.48877
0.34702,0.37320
0.94819,-0.26721
169.110,-0.57834
307.429,-0.30889
445.259,-0.23672
499.022,-0.28629
500.000,0.07313
500.000,0.50185
500.000,0.51858
500.000,0.27765
460.899,-0.10276
346.530,-0.34008
253.666,0.01744
248.289,0.31547
291.789,0.05307
267.351,-0.53209
222.874,-0.36912
195.992,0.05284
317.693,0.60187
108.504,-0.91066
0.30303,0.39607
118.280,0.95052
0.89932,-0.27501
0.01466,-0.52482
0.00000,0.13735
0.00000,0.07062
0.00000,-0.04923
0.00000,-0.07475
0.00000,-0.03779
0.00000,0.00915
0.00000,0.03732
0.12219,0.07651
311.339,0.83269
498.045,-0.59859
500.000,-116.751
499.511,-0.08279
500.000,0.58273
499.511,0.60805
500.000,0.32705
493.646,-0.00334
315.738,-0.65456
0.22483,-0.37735
0.00000,113.869
0.00000,0.31995
0.00000,-0.46975
0.00000,-0.62689
0.00000,-0.38545
0.00000,-0.06280
0.00000,0.15903
0.59140,0.40393
463.343,112.828
500.000,-138.565
499.511,-0.70840
499.511,0.30255
371.945,0.28458
282.502,0.70651
165.689,0.36446
0.07331,-0.06473
0.01466,0.28824
0.01955,-0.29949
0.00000,-0.58253
0.00000,-0.43618
0.00000,-0.14878
0.00000,0.09173
0.00000,0.20840
0.00000,0.21101
0.70870,0.34834
480.450,0.96184
500.000,-159.406
500.000,-0.71727
499.511,0.32199
500.000,0.66546
500.000,0.49078
500.000,0.16215
499.511,-0.09914
493.157,-0.23136
121.212,-124.054
0.01955,0.92645
0.00000,0.97767
0.00000,-0.07287
0.54741,-0.44645
363.148,0.11959
498.534,-110.623
499.511,-0.91792
500.000,0.28581
500.000,0.84007
500.000,0.73656
500.000,0.34997
500.000,-0.01499
500.000,-0.22332
500.000,-0.26998
499.511,-0.21314
480.938,-0.16538
443.793,-0.06094
386.119,0.03629
320.626,0.13020
285.924,0.23680
279.570,0.13599
282.991,-0.07449
294.233,-0.16559
296.676,-0.18334
293.744,-0.08022
282.014,0.01905
281.525,0.13826
284.457,0.11173
283.480,0.02558
283.969,-0.00546
276.637,-0.04417
250.244,-0.07079
202.835,-0.04001
139.785,0.02791
0.08309,-0.09208
0.00000,0.49066
0.00000,0.09650
0.00000,-0.23587
0.00000,-0.28195
0.00000,-0.16121
0.27370,0.06211
339.198,0.86021
498.045,-0.65616
500.000,-0.98346
499.511,0.05239
499.511,0.62077
499.511,0.58721
500.000,0.27998
500.000,-0.02711
497.067,-0.20695
434.018,-0.39928
283.480,-0.36165
145.161,0.18203
0.61095,0.45892
0.77224,0.41094
157.380,-0.04340
285.435,-0.37776
418.377,-0.51772
378.299,-0.81469
0.67937,-0.62232
0.00489,158.244
0.00000,124.242
0.00000,0.10016
0.00000,-0.53336
0.00000,-0.59994
0.13196,-0.33707
251.222,0.52142
232.649,-0.88345
0.10264,-0.77529
0.00000,117.625
0.00000,0.84858
0.00000,0.13920
0.00000,-0.27045
0.45943,-0.21861
273.216,0.22782
483.871,-0.42477
499.511,-105.970
500.000,-0.08898
500.000,0.59587
500.000,0.65679
500.000,0.37329
500.000,0.04673
500.000,-0.16445
500.000,-0.23129
500.000,-0.19472
500.000,-0.11301
499.511,-0.03377
483.382,-0.02106
454.057,0.02571
429.130,0.11328
406.158,0.09886
379.277,0.02362
346.530,-0.02956
317.693,-0.01203
257.087,-0.10826
0.28837,-0.46701
0.00000,0.78325
0.00978,0.37495
0.00000,-0.22401
0.00000,-0.39745
0.00000,-0.27954
0.00000,-0.07705
0.00000,0.07672
0.00000,0.14053
0.00000,0.13044
0.00000,0.08259
0.00000,0.02938
0.00000,-0.01006
0.21994,0.03250
216.520,0.43603
433.040,-0.17715
493.157,-0.95391
462.854,-0.49133
101.173,-0.53605
0.01466,172.046
0.00000,134.190
0.00000,-0.02720
0.00000,-0.75184
0.00000,-0.77152
0.00000,-0.44502
0.00000,-0.08604
0.00000,0.14851
0.00978,0.23426
0.44477,0.32409
251.711,0.54927
411.535,-0.34820
499.511,-0.66338
500.000,-0.41112
499.511,0.28308
500.000,0.51891
500.000,0.36507
500.000,0.09939
500.000,-0.10415
500.000,-0.18948
500.000,-0.17655
381.720,-0.44809
0.88465,-0.42886
0.00978,105.458
0.00000,0.75076
0.00489,-0.19880
123.656,-0.24897
312.317,-0.41585
406.158,-0.82937
437.439,-0.40935
472.629,0.34768
412.512,0.33881
497.067,0.97593
499.511,0.08192
500.000,-0.15201
500.000,-0.17728
500.000,-0.14707
500.000,-0.10477
486.804,-0.09911
400.782,-0.21847
371.945,0.26542
418.377,0.38723
410.068,-0.21009
359.238,-0.33074
342.620,0.05992
335.777,0.13040
295.699,-0.04658
281.525,0.09171
239.492,-0.04601
169.110,-0.07750
158.358,0.22727
215.054,0.23134
277.615,-0.14456
303.519,-0.39527
343.597,-0.12649
369.013,0.00233
301.564,-0.13292
268.817,0.33749
308.407,0.51280
326.979,-0.00973
417.889,-0.00821
302.542,-0.85652
378.299,0.43443
362.170,-0.06648
202.835,-0.41997
0.86510,0.31886
140.274,0.87756
250.244,0.18900
292.278,-0.71093
291.789,-0.66486
307.429,-0.07058
347.507,0.28341
374.878,0.19972
317.204,-0.11111
142.229,-0.19227
0.44966,0.55015
0.88465,0.75126
189.638,0.03804
249.267,-0.73291
282.014,-0.68353
329.423,-0.15576
440.860,0.32797
497.067,0.03144
425.220,-0.25813
261.486,0.01033
123.167,0.60024
0.41056,0.64777
0.68426,0.38474
166.667,-0.21352
225.318,-0.85065
331.378,-0.49182
217.009,-0.84929
284.946,0.75409
288.368,0.41366
204.301,0.00407
117.302,0.18540
0.90909,0.39459
150.049,0.28163
251.711,-0.16976
313.783,-0.62436
315.738,-0.57150
183.773,-0.39120
0.12708,0.31407
0.00000,114.654
0.00000,0.42581
0.00000,-0.25217
0.10753,-0.43608
0.23460,-0.36246
0.00000,-0.27688
0.00000,0.10570
0.00000,0.18183
0.10753,0.17364
0.97752,0.28380
188.172,-0.06543
245.846,-0.32012
177.419,-0.50291
0.81134,0.07189
0.48387,0.63789
0.84555,0.54107
163.245,0.04651
243.891,-0.40413
442.815,-0.11444
306.940,-130.663
337.732,0.46390
318.182,0.46770
307.918,0.38983
265.396,0.06773
158.847,-0.18814
0.61095,0.03190
0.29326,0.25661
0.03910,-0.04018
0.00000,-0.17956
0.00000,-0.23872
0.00000,-0.16996
0.10264,-0.01102
0.00000,-0.00165
0.00000,0.13433
0.00000,0.12897
0.00000,0.07609
0.00000,0.02244
0.00000,-0.01341
0.00978,-0.02617
0.06843,-0.01629
0.00489,-0.06302
0.51320,0.14767
0.72825,-0.11708
0.58162,-0.19694
0.38123,0.00194
0.02933,0.08916
0.30303,0.31905
0.64516,0.05870
0.67937,-0.23466
0.86022,-0.10374
0.89443,-0.07549
135.386,0.14309
265.396,0.26694
0.76246,-102.862
0.75269,0.56805
0.88954,0.51260
125.122,0.14308
155.914,-0.21138
168.622,-0.31688
165.689,-0.19117
188.661,0.09790
165.689,-0.03107
0.78690,-0.08905
0.05376,0.22925
0.01955,0.43074
0.00000,0.03232
0.00000,-0.21656
0.01466,-0.24069
0.62561,0.02268
125.611,-0.07822
194.526,-0.08379
247.801,-0.08004
260.997,-0.06340
267.351,0.13904
249.756,0.15549
250.733,0.23219
223.363,0.00326
187.683,-0.05327
183.284,0.05069
181.329,-0.06038
186.217,-0.10757
187.195,-0.12407
194.037,-0.04296
204.790,0.01396
194.526,-0.03096
163.245,-0.00628
259.531,0.46679
0.96774,-0.73493
133.431,0.53964
160.313,0.20758
191.593,-0.10180
231.183,-0.18486
231.183,-0.27272
217.986,-0.06873
233.138,0.21393
203.812,0.02219
151.515,0.01532
138.807,0.22041
109.971,0.01276
121.212,0.04922
145.650,-0.07602
158.847,-0.20376
205.767,-0.03078
250.733,-0.05128
246.823,-0.16455
267.351,0.13651
283.969,0.14637
274.194,0.01752
230.694,-0.04354
206.256,0.13362
195.503,0.11604
174.487,-0.05826
174.976,-0.03538
212.121,0.00790
218.475,-0.21508
219.453,-0.12616
248.289,0.10089
241.935,-0.03079
336.755,0.34229
166.667,-0.74849
195.503,0.62144
184.262,0.21191
184.262,-0.00736
205.767,-0.07838
200.880,-0.24095
211.144,-0.07455
226.295,0.00797
216.031,-0.04847
185.728,-0.00468
179.863,0.18182
176.442,0.10658
180.352,0.01791
193.548,-0.03768
184.751,-0.14943
191.105,-0.01088
216.520,0.06544
213.587,-0.08655
206.256,-0.02399
212.610,0.09058
238.025,0.10682
256.598,-0.03292
277.615,-0.05524
308.895,-0.01292
332.845,-0.04457
335.288,-0.07177
346.530,0.06350
355.327,0.06760
333.822,-0.04471
309.873,0.02861
296.676,0.09354
286.413,0.03475
430.596,0.40021
256.598,-110.745
282.991,0.41782
303.030,0.29903
320.137,0.01613
343.597,-0.08443
361.681,-0.11663
390.029,-0.02296
391.984,-0.07296
367.546,-0.03415
338.221,0.10230
326.491,0.19432
321.603,0.09052
254.154,-0.22303
123.167,-0.22319
0.38612,0.26131
0.41544,0.43434
0.93353,0.07101
137.830,-0.38088
158.847,-0.45547
173.998,-0.17338
215.543,0.17593
209.677,0.05421
214.076,0.19686
227.273,0.19665
225.806,0.02697
216.031,-0.04457
194.037,-0.06760
202.346,0.07052
241.447,0.06206
277.126,-0.12062
273.705,-0.25843
262.952,-0.06351
265.885,0.14806
260.508,0.10770
390.029,0.44784
144.184,-116.872
0.18573,0.32847
0.01955,0.87207
0.34213,0.33743
108.993,-0.21035
168.133,-0.59035
211.144,-0.47900
271.750,-0.05768
331.867,0.13956
341.153,0.05597
351.906,0.22436
355.816,0.21489
340.665,0.07813
269.795,-0.12251
101.173,-0.24557
0.02933,0.36292
0.00000,0.46808
0.18573,-0.08350
0.96774,-0.27686
168.133,-0.48275
210.166,-0.40681
211.632,-0.13636
131.476,0.03647
111.926,0.63286
156.403,0.61410
195.992,0.02814
197.947,-0.38255
170.577,-0.34246
162.268,0.00202
200.391,0.21607
230.694,-0.00039
254.643,-0.10441
284.946,-0.04525
294.721,-0.06503
445.748,0.43934
304.008,-0.87560
349.462,0.50921
334.311,0.16763
250.733,-0.13745
175.953,0.08286
237.537,0.50735
318.182,-0.02887
0.95308,-126.896
0.01466,0.25875
0.00000,0.74471
0.00000,0.18825
0.00000,-0.20930
0.00000,-0.28134
0.00000,-0.17043
0.00000,-0.02721
0.00000,0.06844
0.00000,0.09983
0.00000,0.08434
0.00000,0.04826
0.00000,0.01255
0.00000,-0.01175
0.00000,-0.02234
0.00000,-0.02221
0.00000,-0.01619
0.00000,-0.00862
0.00000,-0.00230
0.00000,0.00163
0.00000,0.00322
0.00000,0.00314
0.00000,0.00222
0.00000,0.00112
0.00000,0.00024
0.00000,-0.00029
0.00000,-0.00048
0.00000,-0.00044
0.00000,-0.00030
208.211,0.59007
447.214,-0.10367
499.511,-108.332
499.511,-0.42969
499.511,0.39886
499.511,0.62748
496.579,0.42224
307.918,-0.40542
119.257,0.06254
0.25415,0.53106
0.19550,0.29995
120.235,-0.08906
277.126,-0.53266
487.292,-0.57415
499.022,-104.765
500.000,0.00745
500.000,0.70066
500.000,0.74787
500.000,0.43798
499.511,0.07931
500.000,-0.15420
500.000,-0.24344
500.000,-0.21510
500.000,-0.13279
500.000,-0.04709
500.000,0.01441
500.000,0.04447
500.000,0.04870
500.000,0.03777
500.000,0.02166
500.000,0.00726
500.000,-0.00222
500.000,-0.00654
455.523,-0.13303
155.425,-0.68901
140.762,115.300
225.318,0.74440
400.293,-0.08087
499.022,-101.859
500.000,-0.96392
500.000,-0.03896
500.000,0.49303
500.000,0.53669
500.000,0.32550
500.000,0.07831
500.000,-0.09000
500.000,-0.15495
499.511,-0.14339
500.000,-0.08791
500.000,-0.03667
500.000,0.00442
490.225,-0.00134
425.220,-0.11652
340.665,0.04498
212.610,0.06667
0.67449,0.14878
0.00978,0.39222
0.00000,0.18045
0.00000,-0.30920
0.00978,-0.42540
0.00000,-0.27410
0.00000,-0.03975
0.00000,0.11835
0.00000,0.17185
0.09775,0.17464
162.268,0.48175
317.693,-0.12248
239.980,-105.956
491.202,0.84132
500.000,-0.48032
500.000,-0.11547
499.022,0.26843
413.001,0.07909
219.941,-0.05737
105.572,0.52545
195.503,0.81017
387.586,-0.02254
497.067,-113.346
500.000,-112.457
500.000,-0.11241
499.511,0.51075
500.000,0.60205
500.000,0.38654
500.000,0.11774
450.147,-0.21580
225.806,-0.60581
0.42522,0.24964
0.62072,0.96462
215.054,0.37355
338.221,-0.77823
376.833,-110.402
299.120,-0.67910
181.818,0.25072
221.896,124.281
452.590,109.752
499.511,-0.78007
500.000,-0.77926
499.511,-0.13909
232.649,-0.52025
0.07331,0.64229
0.53763,156.519
416.422,104.176
499.511,-182.970
500.000,-159.112
498.534,-0.24743
366.080,0.19393
0.80645,0.39088
0.01955,152.779
107.038,111.071
225.806,-0.40856
193.060,-151.279
137.341,-0.81563
240.958,0.49798
416.422,0.49466
498.534,-0.30314
425.709,-0.57656
0.57185,-0.58712
0.00489,175.067
0.00000,106.683
0.00000,-0.17969
0.00000,-0.74316
0.00000,-0.68270
0.00000,-0.35230
0.00000,-0.02797
0.01466,0.17025
0.00000,0.21067
0.00000,0.18379
0.00000,0.10633
0.00000,0.02991
0.00000,-0.02139
0.00000,-0.04355
0.00000,-0.04349
0.00000,-0.03149
0.00000,-0.01649
0.00489,-0.00270
0.00000,0.00029
0.00000,0.00751
0.00000,0.00733
0.00000,0.00467
0.00000,0.00193
0.00000,0.00003
0.00000,-0.00091
0.00000,-0.00110
0.00978,0.00189
0.29814,0.07756
0.49365,-0.05452
0.56207,-0.09959
0.75269,0.01941
109.971,0.07416
163.245,0.05713
482.405,0.70652
499.511,-117.104
499.511,-0.48012
500.000,0.30764
500.000,0.53460
499.511,0.37564
500.000,0.11339
500.000,-0.09412
499.511,-0.18184
500.000,-0.16636
500.000,-0.10998
500.000,-0.04174
499.511,0.00877
366.080,-0.33953
0.99218,-0.21341
0.02933,0.97556
0.17595,0.75414
449.658,0.93923
499.511,-212.152
500.000,-137.244
400.293,-0.22771
0.33724,0.09372
0.00000,220.205
0.00000,107.883
0.00489,-0.27515
0.00000,-0.82912
0.00000,-0.72512
0.00000,-0.36413
0.00000,-0.02493
0.00000,0.17303
0.00000,0.22572
0.00000,0.18301
0.00000,0.10280
0.00000,0.02740
0.00000,-0.02248
196.970,0.51462
133.920,-0.96096
223.851,0.14339
296.676,0.09695
283.969,-0.21064
251.711,0.03543
298.631,0.47614
386.119,0.26980
456.989,-0.20027
452.102,-0.49464
381.232,-0.29073
317.204,0.23439
273.216,0.40760
239.003,0.21995
217.498,-0.00293
205.767,-0.14938
187.683,-0.22403
178.886,-0.11593
168.133,-0.04735
131.476,-0.05317
0.82600,0.04789
0.40567,0.16084
0.01955,0.13009
0.00000,0.13930
0.00000,-0.06137
0.00000,-0.15245
0.00000,-0.12174
0.00000,-0.04457
0.00000,0.02086
0.00000,0.05229
0.00000,0.05278
0.00000,0.03578
0.00000,0.01468
0.00000,-0.00200
0.00000,-0.01108
0.00000,-0.01322
0.00000,-0.01087
0.00000,-0.00671
0.00000,-0.00270
0.00978,0.00290
0.00000,-0.00487
0.00000,0.00397
0.00000,0.00379
0.00000,0.00164
0.00000,-0.00003
0.00000,-0.00076
0.00000,-0.00081
0.00000,-0.00054
0.00000,-0.00021
0.00000,0.00002
0.00000,0.00014
0.00000,0.00015
0.00000,0.00011
0.00000,0.00006
0.00000,0.00001
0.00000,-0.00002
0.00000,-0.00003
0.00000,-0.00003
0.00000,-0.00002
0.00000,-0.00001
0.00000,-0.00000
0.00000,0.00000
0.25904,0.07343
460.411,113.450
499.511,-156.096
499.511,-0.82691
500.000,0.29198
500.000,0.70190
500.000,0.55625
500.000,0.21517
500.000,-0.07225
500.000,-0.21413
500.000,-0.22387
500.000,-0.15746
500.000,-0.07088
500.000,-0.00040
500.000,0.03976
500.000,0.05128
500.000,0.04372
500.000,0.02791
500.000,0.01197
500.000,0.00035
500.000,-0.00581
500.000,-0.00737
498.534,-0.01026
444.770,-0.15065
492.180,0.33696
334.311,-0.53980
356.305,0.53810
255.621,-0.16012
475.073,0.86032
500.000,-0.77721
467.742,-0.72622
386.608,-0.16231
269.306,0.29541
116.813,0.42059
0.13196,0.54922
0.31769,0.49371
136.364,-0.04320
195.503,-0.80111
228.250,-0.70737
269.795,-0.15434
308.895,0.18625
329.423,0.25449
327.957,0.21863
311.828,0.17544
281.036,0.09820
255.621,0.07350
230.205,-0.01836
210.166,-0.07419
211.144,-0.05506
222.385,-0.09208
209.189,-0.18978
195.015,-0.05574
195.015,0.09786
188.172,0.06099
343.597,0.50499
176.442,-103.498
212.121,0.47184
229.228,0.28137
230.205,-0.02067
226.295,-0.09600
229.228,-0.03897
234.604,-0.01654
245.357,-0.00045
245.846,-0.04381
219.453,-0.08083
202.346,0.07405
199.902,0.12737
204.301,0.04696
208.700,-0.04814
209.189,-0.08456
212.610,-0.03837
209.677,-0.02501
202.346,0.00570
195.992,0.04270
193.548,0.05104
194.037,0.02416
195.992,-0.00908
195.503,-0.03495
189.638,-0.03796
185.728,0.00483
191.593,0.04457
199.902,0.01120
191.593,-0.06873
192.571,0.01677
197.947,0.03448
222.385,0.05946
281.525,0.06927
158.847,-0.60774
194.526,0.48800
206.256,0.17880
212.121,-0.05789
213.099,-0.11978
217.498,-0.05949
224.829,-0.00833
226.295,-0.01049
208.211,-0.03854
176.442,0.00701
168.622,0.15188
173.998,0.09493
179.863,-0.04153
185.239,-0.09684
189.638,-0.07776
190.616,-0.03629
188.661,0.00885
187.683,0.04601
188.172,0.04780
188.172,0.02143
189.150,0.00376
186.217,-0.02176
189.638,0.00684
236.070,0.11438
365.591,0.18118
491.691,-0.20564
488.270,-0.65442
438.905,-0.16253
458.455,0.58583
500.000,0.47499
499.511,-0.04349
500.000,-0.12032
499.511,-0.10291
500.000,-0.06470
453.079,-0.17431
162.757,-0.66754
0.04888,0.71243
0.00000,101.706
0.00000,0.00270
0.00000,-0.57979
0.00000,-0.57431
0.00000,-0.28748
0.00000,0.00652
0.28837,0.26088
164.712,0.49564
241.447,-0.16824
259.042,-0.34624
260.508,-0.02775
487.292,0.86882
500.000,-0.57409
487.781,-0.32893
365.103,-0.17335
279.081,0.48783
211.632,0.48271
420.332,0.89649
499.022,-0.78897
500.000,-105.920
500.000,-0.31609
500.000,0.23107
499.511,0.38866
499.511,0.30251
500.000,0.13503
500.000,-0.00924
500.000,-0.08256
500.000,-0.09510
500.000,-0.07192
500.000,-0.03716
500.000,-0.00696
500.000,0.01168
500.000,0.01866
500.000,0.01725
500.000,0.01180
500.000,0.00567
0.54741,-126.124
0.00489,151.486
0.00000,0.91571
0.00000,-0.23609
0.10753,-0.67191
487.292,0.72820
500.000,-201.068
500.000,-0.74965
499.022,0.54882
500.000,0.96465
500.000,0.72142
500.000,0.27988
500.000,-0.08054
500.000,-0.25986
500.000,-0.27745
500.000,-0.20082
500.000,-0.09718
499.022,-0.01342
500.000,0.04702
500.000,0.05550
500.000,0.04883
500.000,0.03300
420.332,-0.21014
297.654,-0.04667
223.851,0.37368
193.060,0.32112
230.694,0.12633
303.519,-0.21544
359.726,-0.47868
393.451,-0.36947
388.074,-0.12922
338.221,0.10951
305.963,0.43005
284.946,0.37118
276.149,0.14581
288.856,-0.03513
305.963,-0.19809
324.047,-0.22174
335.288,-0.16100
343.597,-0.03693
353.372,0.06693
339.198,0.02498
301.564,0.02819
273.216,0.14553
247.801,0.10812
238.514,0.05637
227.761,-0.07458
211.632,-0.12827
206.745,-0.04655
199.902,-0.03429
265.885,0.19925
222.385,-0.36011
182.307,-0.04535
206.745,0.35240
213.099,0.07381
211.144,-0.07472
198.925,-0.09379
208.700,0.04526
230.694,0.04015
240.469,-0.07328
224.829,-0.11896
191.593,-0.02815
173.509,0.14741
158.847,0.11398
150.538,0.03550
158.358,-0.00373
181.818,-0.04439
202.835,-0.11652
210.166,-0.12635
208.211,-0.03504
204.790,0.07087
200.391,0.10064
193.060,0.06646
183.284,0.02314
169.599,-0.01341
147.116,-0.04132
137.830,0.02802
145.161,0.03943
219.453,0.14193
217.009,-0.35172
159.824,-0.29881
194.037,0.37862
195.503,0.10338
198.925,0.01530
196.970,-0.03458
194.526,-0.02332
200.391,0.01551
195.503,-0.04065
180.841,-0.04177
161.290,0.00305
161.290,0.09709
173.998,0.05526
182.307,-0.06126
182.796,-0.09565
179.374,-0.04240
171.554,0.01108
171.065,0.07191
158.358,0.00750
120.235,-0.05484
0.96774,0.08218
0.93353,0.11218
120.723,0.06886
133.431,-0.15441
147.116,-0.13778
155.914,-0.06826
161.779,0.01448
264.907,0.34436
115.836,-0.73283
153.959,0.56058
159.335,0.20982
169.599,-0.01540
175.953,-0.13198
186.217,-0.10309
199.413,-0.05103
203.812,-0.04198
191.105,-0.03110
157.380,0.00247
141.740,0.15622
148.583,0.15431
161.290,-0.00260
165.200,-0.13535
157.869,-0.13513
130.010,-0.08284
100.196,0.05728
0.90909,0.16866
0.98240,0.10866
112.414,-0.02448
125.122,-0.11075
143.206,-0.07724
152.004,-0.06580
117.302,-0.11287
0.91398,0.11824
0.95308,0.24139
150.049,0.20716
201.369,-0.12392
122.678,-0.59299
168.622,0.31945
190.616,0.11122
202.835,-0.03481
212.121,-0.03828
223.851,0.00739
233.627,0.01203
234.604,-0.01130
200.391,-0.08394
172.043,0.07101
172.532,0.17556
180.841,0.03984
188.661,-0.09405
189.150,-0.13653
188.661,-0.06602
189.638,0.01160
185.728,0.02784
183.284,0.05005
178.886,0.03277
179.863,0.03330
196.481,0.04236
216.031,-0.02759
240.469,-0.05053
258.553,-0.07130
239.980,-0.12388
225.318,0.06706
207.722,0.11784
187.683,0.08296
292.766,0.38513
127.566,-0.89806
146.628,0.41158
170.577,0.25765
192.571,-0.05962
216.520,-0.16495
233.627,-0.14959
232.160,-0.08950
217.498,0.02631
181.329,0.07300
116.813,0.06911
0.71848,0.19963
0.46432,0.14368
0.31281,-0.02469
0.40567,-0.08644
0.51808,-0.17445
0.67449,-0.13806
0.80156,-0.07064
0.87488,0.00567
0.96285,0.08413
0.96285,0.07024
0.90420,0.05801
0.82600,0.04947
0.78201,0.03823
0.75269,-0.00144
0.76735,-0.02358
0.85044,-0.02884
0.75758,-0.10036
0.74291,-0.00232
0.89932,0.07176
0.90909,-0.03551
234.115,0.38656
0.80645,-0.95993
106.061,0.44119
128.055,0.33589
138.807,0.01562
147.605,-0.10237
162.268,-0.07707
176.931,-0.05363
181.818,-0.05022
177.908,-0.01158
160.313,0.01326
157.380,0.11591
172.532,0.10799
189.150,-0.02138
203.324,-0.09367
214.076,-0.08338
225.806,-0.02067
240.469,0.02732
244.868,0.00052
244.868,0.01738
242.424,0.03376
223.363,-0.01185
194.037,0.00237
175.464,0.07610
160.802,0.03817
153.470,-0.00727
148.094,-0.05627
140.274,-0.07365
152.004,0.01689
141.740,-0.08018
138.319,0.01300
139.296,0.05465
135.386,0.02039
225.806,0.28306
0.70870,-0.77118
0.79668,0.45414
0.65982,0.23240
0.53763,0.01631
0.43988,-0.08663
0.53275,-0.05271
0.59629,-0.09797
0.68426,-0.06259
0.64516,-0.05302
0.43500,-0.01500
0.42522,0.14544
0.58162,0.13494
0.68915,-0.01753
0.82111,-0.06003
0.93353,-0.06216
0.87977,-0.07403
0.82111,0.01819
0.85044,0.08669
0.95308,0.06402
106.549,-0.00670
118.768,-0.04078
132.942,-0.03573
141.251,-0.04027
147.605,-0.00596
151.515,0.01818
152.981,0.02559
159.824,0.04283
158.358,-0.01318
152.004,-0.02014
164.223,0.05768
190.127,0.03364
292.278,0.16130
299.609,-0.41151
270.772,-0.24841
313.294,0.33887
324.536,0.11174
322.092,0.00041
312.317,-0.00414
304.008,0.02750
302.542,0.03290
291.789,-0.04658
254.154,-0.11654
208.211,-0.02089
180.352,0.11799
173.021,0.10957
174.487,-0.01391
174.487,-0.11194
178.397,-0.08756
170.088,-0.07628
150.049,-0.01484
142.717,0.11548
127.566,0.06287
118.280,0.05198
114.858,0.02057
108.993,-0.03812
102.151,-0.04687
0.90909,-0.03885
0.85533,0.01542
0.75269,-0.00093
0.58162,-0.01094
0.41544,0.01986
0.07331,-0.02455
0.00489,0.10714
0.00000,0.03618
0.00000,-0.05205
108.016,0.23382
0.04399,-0.74367
0.11730,0.22920
0.42033,0.32305
0.64516,0.05224
0.86999,-0.07267
120.235,-0.05247
167.155,-0.01567
217.498,-0.03378
230.205,-0.14367
207.722,-0.07630
208.700,0.21151
222.874,0.20481
239.980,0.04288
258.553,-0.07409
272.239,-0.12181
277.615,-0.09905
274.682,-0.03586
284.946,0.08153
288.856,0.03396
283.969,-0.00954
273.216,-0.00457
263.441,0.02682
249.267,0.01026
234.115,0.00513
214.076,-0.01376
202.346,0.02053
198.436,0.01467
192.571,-0.03683
186.217,-0.04069
170.088,-0.04576
167.644,0.05228
168.622,0.03844
201.857,0.08941
218.475,-0.09383
127.566,-0.38325
151.026,0.40520
154.448,0.13595
163.245,-0.02171
175.464,-0.08443
187.195,-0.08850
206.256,-0.02700
212.610,-0.04578
195.015,-0.05010
169.110,0.04945
161.779,0.16712
171.554,0.11936
179.863,-0.04298
197.947,-0.07677
209.189,-0.11340
195.503,-0.12518
152.493,-0.05429
106.061,0.11778
0.77224,0.21342
0.96285,0.21821
145.650,0.00562
170.088,-0.30439
160.802,-0.31294
121.701,-0.10470
0.72336,0.14709
0.37146,0.28829
0.42033,0.27833
0.76735,0.06187
108.016,-0.21369
108.504,-0.32846
121.212,-0.06961
130.010,0.04706
161.290,0.16095
183.284,0.04076
0.72336,-0.37453
0.98240,0.50542
109.482,0.16571
115.836,-0.10838
136.364,-0.12502
158.847,-0.12213
173.998,-0.09877
174.976,-0.04907
157.380,0.01070
132.454,0.09645
124.633,0.17657
127.077,0.09337
125.122,-0.05589
122.190,-0.09661
137.341,-0.01884
149.560,-0.05325
155.914,-0.05584
157.869,-0.01272
154.448,0.02490
158.358,0.07909
163.734,0.04865
162.268,-0.01611
161.290,-0.01308
162.757,-0.00020
168.133,0.00362
176.442,-0.00663
180.352,-0.03422
196.970,0.02139
189.150,-0.07594
172.043,-0.02278
173.021,0.11082
160.313,0.01517
276.637,0.36907
133.431,-0.85524
142.229,0.33476
167.155,0.31629
182.796,-0.01153
183.284,-0.17265
191.105,-0.07664
199.902,-0.01191
208.700,0.01811
211.144,0.00950
189.638,-0.03753
174.976,0.07322
180.352,0.12885
195.015,0.03504
218.475,-0.04875
239.980,-0.10799
234.604,-0.15441
229.228,0.00388
214.076,0.06376
210.166,0.13103
222.874,0.10825
226.784,-0.04888
237.048,-0.05773
240.958,-0.07451
246.823,-0.02190
250.733,0.00347
244.379,-0.00665
233.627,0.02146
201.369,-0.01481
195.503,0.12977
194.526,0.05289
172.532,-0.10482
236.559,0.18783
0.82111,-0.69999
0.95308,0.47713
0.56696,0.11238
0.04399,-0.04248
0.00489,0.11433
0.00000,-0.03792
0.00000,-0.12860
0.07331,-0.08846
0.34702,0.01032
0.53275,-0.03916
0.88954,0.04625
124.633,0.02216
146.628,-0.02964
151.515,-0.02352
144.184,0.03319
135.386,0.09181
127.566,0.08074
107.038,-0.01446
0.85533,-0.02182
0.50831,-0.05835
0.02444,-0.05164
0.00000,0.14983
0.00000,0.00184
0.00000,-0.10141
0.00000,-0.09743
0.00000,-0.04087
0.00000,0.01461
0.00000,0.04436
0.00000,0.04743
0.00000,0.03399
0.00000,0.01560
0.00000,0.00023
0.00000,-0.00874
0.00000,-0.01147
0.00000,-0.00993
0.00000,-0.00645
0.00000,-0.00288
0.00489,0.00116
0.00000,-0.00201
0.00000,0.00267
0.00000,0.00252
0.00000,0.00124
0.00000,0.00018
0.00000,-0.00036
0.00000,-0.00048
0.00000,-0.00037
0.00000,-0.00019
0.00000,-0.00004
0.00000,0.00004
0.00000,0.00008
0.00000,0.00007
0.00000,0.00004
0.00000,0.00002
0.00000,-0.00000
0.00000,-0.00001
0.12708,0.03601
0.42033,0.03544
0.18573,-0.19697
0.00000,-0.00260
0.00000,0.14758
0.00000,0.07078
0.00978,-0.00749
0.64027,0.13065
130.987,-0.08959
273.705,0.03026
150.049,-0.95000
197.947,0.52170
242.913,0.43296
226.784,-0.05802
206.256,-0.03720
145.650,-0.08503
0.53763,-0.02634
0.00489,0.22725
0.00000,0.22226
0.00000,-0.12687
0.00000,-0.26577
0.03421,-0.19251
0.74780,0.12263
0.86510,-0.19552
0.60117,-0.13487
0.67449,0.25294
152.004,0.43775
355.816,0.35602
497.067,-0.49479
499.511,-0.83595
499.511,-0.02337
499.511,0.44686
500.000,0.44740
500.000,0.21862
500.000,-0.01107
500.000,-0.14384
499.511,-0.17348
499.511,-0.13033
500.000,-0.06547
500.000,-0.01227
499.511,0.02300
500.000,0.04219
499.511,0.03402
499.511,0.02592
499.511,0.01278
500.000,0.00338
500.000,-0.00594
500.000,-0.00682
500.000,-0.00488
499.511,-0.00404
499.511,0.00098
467.742,-0.08909
440.860,0.04325
461.877,0.21149
499.022,0.04660
500.000,-0.23705
500.000,-0.12373
500.000,0.01379
499.511,0.07312
500.000,0.07409
500.000,0.03794
500.000,0.00537
500.000,-0.01424
500.000,-0.02042
499.511,-0.01886
486.315,-0.04611
491.202,0.06055
500.000,0.02879
500.000,-0.04760
500.000,-0.02693
458.455,-0.11620
463.343,0.18472
453.079,0.03434
407.625,-0.11965
261.486,-0.28360
126.588,0.18958
0.10264,0.34780
0.00000,0.44482
0.00000,-0.12926
0.00000,-0.43343
0.00489,-0.36610
0.00978,-0.14507
0.22972,0.11487
112.903,0.32875
158.847,-0.07739
159.824,-0.18157
213.099,0.22358
225.806,0.02560
166.178,-0.15448
0.83578,0.05351
0.45455,0.34610
0.75269,0.31599
0.67937,-0.26221
0.01466,-0.48359
0.00000,0.05635
0.00000,0.05744
0.00000,-0.00469
0.00000,-0.01784
0.79179,0.22669
141.740,-0.09495
0.44966,-0.60222
0.20039,0.27888
0.00000,0.37316
0.00000,0.23199
0.00000,-0.03197
0.00000,-0.15806
0.00000,-0.15287
0.00000,-0.08675
0.00000,-0.01737
0.00000,0.02733
0.00000,0.04317
0.00000,0.03831
0.00000,0.02389
0.00000,0.00881
0.00000,-0.00207
0.00000,-0.00746
118.768,0.32834
452.590,0.49419
500.000,-131.282
499.511,-0.63146
388.074,0.02868
125.122,0.33899
0.99218,158.692
206.745,0.91142
267.351,-0.63999
248.778,-120.134
0.26882,-116.890
0.00000,0.73236
0.00000,0.68280
0.45455,0.27517
276.637,0.32756
166.667,-144.955
0.02933,-0.49981
0.02444,101.794
0.00000,0.62915
0.00000,0.07738
0.00000,-0.22242
0.00000,-0.26410
0.00000,-0.17235
0.00000,-0.05621
0.00000,0.02684
0.00000,0.06280
0.00000,0.06187
0.00000,0.04178
0.00000,0.01790
0.00000,-0.00064
0.39101,0.10013
0.80156,-0.04355
115.836,-0.12676
202.346,0.06691
272.239,-0.09859
317.204,-0.14285
328.935,-0.06853
256.598,-0.09038
174.487,0.24458
174.487,0.57153
200.391,0.18721
250.733,-0.17614
272.239,-0.46397
189.638,-0.58138
0.12219,-0.22465
0.00000,0.91303
0.00000,0.44801
0.00000,-0.11172
0.00000,-0.32030
0.00000,-0.26176
0.00000,-0.10833
0.00489,0.02500
0.69892,0.28563
214.565,0.24694
300.587,-0.33999
492.180,0.07114
499.511,-0.62655
500.000,0.00451
499.511,0.42000
500.000,0.41598
500.000,0.19067
500.000,-0.03258
500.000,-0.15775
478.983,-0.23833
382.209,-0.32866
375.855,0.31362
442.326,0.34639
498.534,-0.15174
500.000,-0.44408
500.000,-0.13708
500.000,0.11981
500.000,0.19524
500.000,0.14817
500.000,0.06206
500.000,-0.00925
500.000,-0.04627
500.000,-0.05209
500.000,-0.03919
500.000,-0.02027
500.000,-0.00383
498.045,0.00078
498.045,0.01743
500.000,0.01806
417.400,-0.23649
260.997,-0.13641
315.738,0.87454
209.677,-0.31315
352.395,0.47923
426.197,-0.44107
493.646,-0.52021
440.371,-0.56472
255.132,-0.20074
121.701,0.77674
0.76246,0.96320
101.662,0.40696
165.200,-0.27253
244.379,-0.60846
270.772,-0.70495
179.374,-0.54254
142.229,0.43716
177.419,0.76092
208.700,0.25808
220.919,-0.15359
226.295,-0.20841
165.689,-0.29279
147.605,0.16472
173.998,0.27907
205.767,0.01673
241.935,-0.14095
264.907,-0.19583
237.048,-0.21568
243.891,0.18087
270.283,0.23141
286.413,0.02923
282.991,-0.09969
280.547,-0.02967
298.143,0.07385
260.508,-0.15276
347.507,0.36081
198.925,-0.68626
258.065,0.56855
277.126,0.08620
275.171,-0.19126
237.537,-0.22863
151.026,-0.12882
143.695,0.39571
179.374,0.28563
182.307,-0.19819
178.397,-0.23970
189.638,-0.05478
164.223,-0.09678
178.886,0.18011
195.503,0.10259
201.857,-0.02919
217.498,-0.00492
211.632,-0.07825
193.548,-0.03281
190.616,0.10015
178.397,0.03130
186.217,0.06337
206.256,0.00687
175.953,-0.22322
186.706,0.07543
196.970,0.04438
193.548,-0.04702
204.301,0.02889
204.301,-0.02268
183.284,-0.05888
187.683,0.10931
178.886,0.01024
164.223,-0.02223
253.666,0.29367
138.319,-0.66899
0.98240,0.14022
139.296,0.48495
139.296,-0.05461
144.184,-0.14959
147.605,-0.11983
133.431,-0.09355
164.712,0.16028
150.049,-0.08637
0.99707,-0.10165
0.99218,0.24019
0.81134,0.05891
100.196,0.08758
135.875,-0.02969
131.965,-0.26251
137.830,-0.07292
104.106,-0.07556
0.64516,0.09046
106.549,0.39635
122.678,-0.03018
128.055,-0.18360
123.167,-0.14067
0.94330,-0.07841
139.296,0.28870
183.773,0.05308
198.925,-0.19071
178.886,-0.19095
129.032,-0.03236
140.274,0.35458
179.374,0.21947
188.661,-0.17064
209.677,-0.13753
198.925,-0.17659
216.031,0.08096
0.98729,-0.30870
165.689,0.67056
176.931,0.01014
200.880,-0.14495
152.981,-0.36929
0.60117,-0.15990
105.572,0.59850
174.487,0.22108
178.397,-0.39479
169.110,-0.28182
131.965,-0.08390
108.016,0.19669
170.577,0.43954
229.717,0.00290
247.312,-0.33776
246.334,-0.21842
180.841,-0.14750
133.431,0.25485
173.998,0.52128
212.121,0.03884
221.896,-0.32008
277.126,-0.09684
301.564,-0.19104
261.486,-0.22590
141.251,-0.09432
0.76735,0.50146
134.897,0.69804
209.189,-0.00436
243.402,-0.56538
264.907,-0.44305
252.199,-0.19769
169.110,-0.04494
251.711,0.80739
219.941,-0.08891
195.503,-0.08185
176.931,0.00265
108.993,-0.13913
0.43011,0.02940
0.44477,0.28022
128.543,0.22498
135.386,-0.47243
0.52297,-0.56062
0.46432,0.27254
0.63539,0.34986
0.32258,-0.03528
0.39101,0.09355
0.75758,0.07840
0.24438,-0.34573
0.44477,0.14078
0.82600,0.12113
102.639,-0.09840
0.83578,-0.19667
0.13196,-0.12992
0.08309,0.35850
0.60606,0.34421
0.94330,-0.13150
106.061,-0.30581
0.74780,-0.26563
0.06354,-0.05249
0.34702,0.50096
0.87488,0.23586
116.325,-0.20311
139.785,-0.23755
0.99707,-0.28137
0.82111,0.13928
132.942,0.40466
294.233,0.37924
145.161,-112.909
184.262,0.37275
148.094,0.11246
160.313,0.25562
203.812,0.13418
216.031,-0.21747
245.846,-0.12605
232.160,-0.19833
181.818,-0.08502
183.284,0.31265
189.150,0.17918
186.706,-0.03588
174.976,-0.11724
103.128,-0.23467
0.65494,0.14087
122.190,0.40172
142.717,-0.14972
162.268,-0.23921
166.178,-0.17736
0.78690,-0.25284
0.64516,0.39714
142.717,0.53687
175.464,-0.16527
204.790,-0.28553
212.121,-0.22335
154.448,-0.18417
167.644,0.37672
204.790,0.28595
210.655,-0.10552
216.520,-0.12811
189.150,-0.15819
128.543,-0.07326
197.947,0.49911
240.958,-0.03016
183.773,-0.50418
231.672,0.21121
227.761,-0.05128
183.284,-0.11703
211.632,0.29551
242.424,0.09814
240.958,-0.17537
237.048,-0.10217
168.133,-0.17904
0.38123,-0.06328
0.34702,0.62369
0.98240,0.36464
128.543,-0.34809
175.953,-0.36663
192.082,-0.32557
159.335,-0.16490
179.374,0.35440
205.279,0.28418
193.548,-0.02324
198.436,0.03961
185.239,-0.04931
121.212,-0.16346
129.032,0.24789
159.335,0.11974
160.313,-0.20925
174.487,-0.12514
160.313,-0.13836
131.476,-0.01500
163.734,0.29556
180.841,0.03753
186.706,-0.09660
242.913,0.08648
233.627,-0.23470
158.847,-0.23020
208.700,0.51154
200.880,0.00284
216.031,-0.01574
231.183,-0.07668
221.896,-0.15066
237.048,0.04484
238.514,-0.00586
189.638,-0.12753
170.088,0.15664
160.802,0.15125
156.892,0.03127
176.931,-0.00260
158.847,-0.22065
145.161,-0.07253
128.543,0.02419
0.87488,-0.00197
0.93842,0.21527
123.167,0.11160
115.347,-0.20186
133.920,-0.04239
119.746,-0.11826
0.66960,-0.09234
111.926,0.40258
141.740,0.04701
145.161,-0.20058
182.307,-0.01060
165.689,-0.17957
0.77224,-0.18727
116.813,0.55438
155.914,0.17586
149.560,-0.27510
254.154,0.13533
119.257,-0.80935
110.459,0.34631
176.931,0.56294
205.279,-0.06124
217.498,-0.25242
244.868,-0.08848
221.408,-0.16093
178.886,0.01231
196.481,0.35082
160.313,-0.03424
140.762,0.01832
175.464,0.14166
152.981,-0.25278
109.482,-0.19043
150.538,0.27218
154.936,-0.05693
162.757,-0.06895
204.790,0.07103
225.806,-0.07715
236.559,-0.06440
240.469,0.01198
214.565,-0.00612
216.520,0.18250
240.469,0.14874
236.559,-0.12000
222.874,-0.12669
218.475,-0.00006
214.076,0.02015
191.105,-0.04251
156.892,-0.01544
310.850,0.58572
181.329,-0.91835
178.397,0.16838
151.026,0.18161
184.262,0.29704
194.526,-0.07566
176.931,-0.22836
215.054,0.08565
278.104,0.06479
325.024,-0.13521
322.581,-0.23823
315.249,0.02364
312.317,0.19558
304.497,0.15349
320.137,0.13838
348.974,0.00807
371.945,-0.14336
369.990,-0.20711
331.867,-0.14783
278.592,0.05106
257.576,0.27738
279.570,0.24839
293.744,-0.08937
274.194,-0.29107
168.622,-0.35876
0.79179,0.16053
0.37146,0.42471
0.33724,0.25234
0.34213,-0.11296
0.16618,-0.31318
0.56696,-0.02434
159.335,0.09765
0.03910,-0.86470
0.00978,0.50195
0.60117,0.63194
107.038,0.05383
136.852,-0.26062
198.436,-0.10980
150.538,-0.40526
156.403,0.20080
181.818,0.28850
134.897,-0.11530
114.858,0.08819
184.751,0.31789
177.908,-0.30929
179.863,-0.18692
215.543,0.05707
166.178,-0.22864
145.161,0.13549
213.099,0.42691
199.902,-0.21908
181.329,-0.16152
222.385,0.17186
215.054,-0.11785
214.565,-0.02349
247.312,0.12523
220.430,-0.16097
214.565,0.05273
247.312,0.18405
218.475,-0.17542
219.941,0.03951
202.346,-0.02125
198.436,0.05154
233.138,0.12280
123.656,-0.46408
152.493,0.39936
179.863,0.14541
174.487,-0.19818
165.689,-0.14359
202.346,0.11313
194.037,-0.11533
170.577,-0.05439
167.644,0.14294
0.93353,-0.10500
0.16129,0.07512
0.91887,0.58680
104.106,-0.22604
105.572,-0.36273
155.425,-0.04018
128.055,-0.25994
129.032,0.12141
152.981,0.24878
118.280,-0.06575
124.633,0.15243
145.161,0.09285
119.746,-0.18900
154.936,0.10118
160.802,-0.10794
156.892,-0.10185
189.638,0.10574
182.796,-0.09025
179.863,0.00952
166.178,0.02864
124.145,-0.01843
125.611,0.19777
207.722,0.27290
0.46432,-0.84064
0.87977,0.49374
0.91398,0.10981
0.62561,-0.17323
142.229,0.22704
0.93353,-0.44537
0.42033,-0.11139
158.358,0.64601
166.667,-0.24321
155.914,-0.25323
164.223,0.05449
0.21994,-0.31503
0.00000,0.55261
0.00000,0.35323
0.00000,-0.06767
0.00000,-0.25348
0.00000,-0.22563
0.00000,-0.10888
0.00000,0.00148
0.00000,0.06440
0.40567,0.19368
166.178,0.26548
302.542,-0.11698
428.641,-0.31979
498.534,-0.35253
500.000,-0.14579
500.000,0.31854
500.000,0.42194
500.000,0.25588
499.511,0.02984
483.871,-0.16508
493.646,-0.08618
370.968,-0.50614
332.356,0.23832
349.951,0.35236
357.771,-0.05445
364.614,-0.20559
377.322,-0.13920
391.007,-0.04691
397.849,0.00856
391.007,0.03533
356.305,0.02278
328.446,0.14439
320.626,0.17302
314.761,0.02062
312.317,-0.07826
310.362,-0.10878
304.497,-0.09224
297.165,-0.03256
288.368,0.01605
282.014,0.04893
283.480,0.05982
277.615,-0.01051
271.261,-0.01263
257.576,-0.02219
243.891,0.01046
241.447,0.05322
248.289,0.02907
260.020,-0.02326
246.823,-0.12803
239.980,-0.00330
241.447,0.06897
321.603,0.25927
268.817,-0.44724
238.514,-0.02600
267.840,0.32981
281.525,0.05239
282.991,-0.10654
288.368,-0.06212
288.856,-0.03526
288.368,0.00522
263.441,-0.04271
234.115,0.03439
218.964,0.11781
223.851,0.09863
235.582,-0.02637
245.357,-0.11498
251.222,-0.10690
246.334,-0.06303
239.980,0.03113
235.093,0.08053
233.627,0.07438
226.295,0.00808
216.520,-0.01362
201.369,-0.02407
197.947,0.03156
199.902,0.01040
226.295,0.03612
240.469,-0.09701
250.244,-0.08483
254.643,-0.02410
228.250,-0.04261
215.543,0.13013
211.632,0.13529
242.913,0.12886
233.627,-0.19106
102.151,-0.46078
113.881,0.50964
122.678,0.20962
155.914,-0.02802
184.751,-0.22482
208.211,-0.20922
235.582,-0.05762
250.244,0.00674
207.234,-0.06714
168.622,0.17837
173.998,0.34232
188.661,0.10346
236.070,-0.03111
258.065,-0.28571
269.306,-0.22029
269.795,-0.06103
275.171,0.10633
273.705,0.10744
271.750,0.08527
289.834,0.09849
277.126,-0.10720
228.250,-0.15298
212.121,0.13256
237.048,0.19852
281.525,0.01025
304.008,-0.23617
309.873,-0.20243
288.856,-0.08362
288.856,0.18714
296.676,0.18377
309.384,0.07235
391.984,0.16385
232.649,-0.82088
214.076,0.38671
187.195,0.30582
175.953,0.11026
171.065,-0.08174
182.796,-0.12101
209.189,-0.10903
220.919,-0.15209
183.773,-0.17706
0.86999,-0.06737
0.04399,0.30931
0.00000,0.52462
0.38123,0.17857
0.88465,-0.23921
110.948,-0.46360
113.392,-0.29669
0.88465,-0.05473
100.684,0.31589
134.409,0.28606
157.869,0.02231
171.554,-0.09943
174.976,-0.09313
144.673,-0.10302
156.403,0.18316
180.352,0.11089
190.127,-0.08767
214.076,-0.05149
215.543,-0.12002
163.734,-0.16689
149.071,0.20615
179.374,0.28807
217.009,0.01767
225.806,-0.24501
158.847,-0.35453
197.947,0.36249
167.644,-0.04284
135.875,-0.00465
158.358,0.20730
202.346,0.06053
233.138,-0.18151
222.385,-0.27863
166.178,-0.14893
0.88465,0.11387
0.02444,0.25316
0.00000,0.45944
0.00000,0.01306
0.00000,-0.26353
0.00000,-0.27480
0.00000,-0.15027
0.00000,-0.01440
0.00000,0.07070
0.00000,0.09581
0.00000,0.07910
0.00000,0.04490
0.00000,0.01192
0.00489,-0.00886
0.00000,-0.02306
0.00000,-0.01870
0.00000,-0.01322
0.00489,-0.00586
0.45455,0.12346
0.74780,-0.08522
116.325,-0.06164
134.897,-0.11441
146.628,-0.01261
195.015,0.18881
103.128,-0.33429
163.245,0.52358
193.548,0.07226
223.851,-0.14011
258.553,-0.14786
279.081,-0.13791
258.065,-0.13391
239.980,0.10494
205.279,0.12620
184.751,0.17112
215.054,0.19835
245.846,-0.09128
273.216,-0.22343
288.856,-0.19762
242.913,-0.21440
173.509,0.05708
104.594,0.27496
0.61584,0.31851
0.42033,0.13996
0.39101,-0.08001
0.33236,-0.23983
0.31281,-0.19285
0.04399,-0.16194
0.00000,0.09431
0.00000,0.12158
0.01466,0.06895
0.01955,0.01583
0.29814,0.07412
0.29326,-0.11158
0.01955,-0.12322
0.01466,0.12126
0.18573,0.13428
122.190,0.23908
0.49853,-0.65426
0.39101,0.04737
0.69404,0.31698
0.73314,0.02643
0.82111,-0.02716
118.768,0.03713
177.908,0.00575
228.739,-0.13000
260.020,-0.15594
247.801,-0.12691
240.469,0.14230
239.492,0.22021
253.177,0.16117
254.643,-0.04460
259.531,-0.08081
261.975,-0.08545
261.975,-0.05706
262.463,-0.01134
260.508,0.00618
261.975,0.03155
255.621,-0.00292
249.756,0.01387
243.402,0.01604
235.093,0.00437
223.851,-0.00592
202.835,-0.02620
186.706,0.02543
189.150,0.07186
199.902,0.00731
204.790,-0.08241
197.458,-0.09742
205.767,0.03966
205.279,0.01053
339.687,0.40493
200.391,-0.87351
211.632,0.35460
226.784,0.32663
217.498,-0.00694
151.026,-0.23450
0.24927,-0.17611
0.00000,0.45186
0.41544,0.33507
0.99218,-0.14768
0.44477,-0.70758
0.02933,-0.16394
0.00000,0.28691
0.06354,0.24032
0.46432,0.15985
112.903,0.00741
157.869,-0.22673
200.880,-0.14923
231.183,-0.04689
222.874,-0.02610
195.992,0.10222
173.998,0.21361
151.515,0.14004
165.689,0.12273
227.761,0.03297
304.497,-0.19477
332.845,-0.42278
311.828,-0.27970
302.053,0.17453
282.014,0.26322
268.817,0.23590
245.357,0.05905
229.228,-0.00547
233.138,-0.01652
332.356,0.15965
314.761,-0.54040
299.609,-0.19781
336.266,0.25905
346.530,0.08516
362.170,0.06569
359.726,-0.02139
364.614,0.03896
412.512,0.14747
450.147,-0.07174
416.911,-0.32199
347.507,-0.11494
179.863,-0.08101
0.22483,0.36636
0.00000,0.75115
0.00000,0.08117
0.00000,-0.44383
0.00000,-0.49500
0.00000,-0.27838
0.00000,-0.02760
233.138,0.79438
497.067,0.05599
462.854,-131.066
270.283,-0.58669
270.283,133.865
412.023,132.162
456.012,-0.24522
458.944,-0.68283
451.124,-0.41152
448.192,-0.05310
455.523,0.12335
499.511,0.19845
500.000,-0.12318
500.000,-0.05904
500.000,0.02706
499.511,0.05310
499.511,0.04123
500.000,0.01413
500.000,-0.01121
500.000,-0.01928
500.000,-0.01676
500.000,-0.00975
500.000,-0.00267
500.000,0.00219
500.000,0.00434
500.000,0.00440
500.000,0.00328
481.427,-0.05085
361.193,-0.27061
253.177,0.17451
223.851,0.50146
259.042,0.26816
315.738,-0.20259
345.064,-0.51099
365.591,-0.32788
396.872,0.01109
411.535,0.10643
367.058,0.01972
292.278,0.13686
239.980,0.33333
233.138,0.30465
250.244,0.00434
275.660,-0.24870
295.699,-0.31897
283.480,-0.27708
212.610,-0.16065
0.86510,0.05933
0.25415,0.55435
115.347,0.71837
0.60117,-0.56825
146.139,-0.01966
187.683,-0.34276
131.965,-0.49539
0.38612,-0.03216
0.45455,0.68183
127.077,0.54185
202.835,-0.12169
237.537,-0.48738
215.543,-0.41564
178.886,0.01052
147.116,0.29562
165.689,0.41220
213.099,0.15387
254.643,-0.19212
302.542,-0.23613
344.086,-0.18224
333.333,-0.19216
254.154,-0.08997
187.683,0.32218
199.413,0.55578
254.154,0.20295
276.637,-0.36050
306.940,-0.33154
318.671,-0.22788
250.244,-0.22828
177.419,0.18565
172.532,0.53798
211.144,0.30906
227.761,-0.20691
235.582,-0.31045
342.131,0.11212
141.740,-0.97862
161.290,0.72043
211.144,0.56459
250.733,-0.02772
279.570,-0.28662
281.036,-0.29080
269.795,-0.07951
265.885,0.13768
256.109,0.13551
238.025,0.06624
237.537,0.08433
247.312,0.01214
270.772,-0.04378
298.631,-0.09749
307.918,-0.15034
303.519,-0.06818
297.165,0.06425
264.907,0.04050
213.099,0.05406
0.80645,-0.11468
0.01466,0.30654
0.00000,0.38256
0.11730,-0.07437
0.70870,-0.21694
131.476,-0.35608
133.920,-0.42378
0.62561,-0.21302
0.55230,0.50233
137.341,0.66026
175.464,-0.05884
209.677,-0.23750
239.980,-0.17551
191.593,-0.27267
0.78690,-0.08070
0.00978,0.41110
0.13685,0.57096
100.684,0.19921
191.105,-0.39386
264.907,-0.57076
204.790,-0.68045
117.302,0.04951
132.454,0.83512
164.223,0.47984
177.908,-0.07144
214.076,-0.16701
175.953,-0.42558
0.65982,-0.29064
0.50831,0.46756
131.965,0.52753
213.099,-0.11020
279.081,-0.42881
307.918,-0.39771
242.424,-0.29317
164.712,0.24702
177.908,0.72972
222.874,0.35089
232.649,-0.26301
259.042,-0.26519
242.913,-0.31656
205.279,-0.10813
230.694,0.31460
252.688,0.12444
245.357,-0.11579
248.778,-0.02035
236.070,-0.03536
327.468,0.32303
198.436,-0.67244
0.70381,-0.02802
0.00489,0.53572
0.00000,0.48866
0.00000,-0.07988
0.00000,-0.35137
0.00000,-0.31329
0.00000,-0.14367
0.00489,0.01703
0.00978,0.10318
0.04888,0.12799
0.21994,0.12352
0.43500,0.03696
0.60117,-0.05067
0.73314,-0.05827
0.81134,-0.03481
0.98729,0.03996
0.98729,-0.03052
112.903,0.05168
119.257,-0.00391
137.830,0.02713
152.981,-0.02544
167.155,-0.03423
182.796,-0.01241
205.279,0.01890
206.256,-0.06107
210.166,0.01919
215.054,0.04950
209.677,0.00390
326.491,0.36209
174.976,-0.85898
216.520,0.48462
230.205,0.18909
241.935,-0.04002
244.868,-0.13202
252.688,-0.06093
257.576,-0.02271
255.132,-0.00585
228.250,-0.03288
190.616,0.03663
173.509,0.15779
177.419,0.11780
175.464,-0.07036
172.043,-0.12070
179.863,-0.04835
197.458,-0.00503
231.183,0.02660
251.711,-0.06278
265.396,-0.03733
273.216,0.02029
269.306,0.03736
244.868,0.01882
236.070,0.12479
227.273,0.05570
227.273,0.00240
206.256,-0.12735
207.234,0.00113
209.189,-0.01690
247.312,0.06905
244.379,-0.17205
172.532,-0.24968
201.857,0.40477
205.279,0.09263
197.458,-0.07839
177.908,-0.09619
156.403,-0.01632
137.830,0.04279
118.768,0.03166
0.88954,-0.02333
0.69892,0.02940
0.88954,0.10802
110.948,-0.04914
129.521,-0.13269
135.875,-0.12102
133.920,-0.02223
117.302,0.03979
0.94819,0.09896
0.74291,0.11519
0.42522,0.02649
0.05865,-0.00996
0.00000,0.07474
0.00000,-0.03268
0.00000,-0.11198
0.00000,-0.09883
0.00000,-0.04075
0.00000,0.01392
0.00000,0.04305
0.00000,0.04626
0.00000,0.03346
0.80645,0.24437
0.01955,-0.52475
0.04888,0.16585
0.37634,0.25610
0.74291,0.02980
102.151,-0.14171
130.987,-0.11237
162.268,-0.03214
189.150,0.00387
196.481,-0.01394
188.172,0.02223
196.481,0.14460
205.767,0.07479
209.677,-0.02812
213.099,-0.05266
210.655,-0.05999
202.835,-0.03569
208.211,0.04721
229.717,0.05872
291.789,0.08496
416.422,0.08051
498.045,-0.31966
500.000,-0.41995
500.000,0.07304
500.000,0.32358
500.000,0.28622
500.000,0.12483
500.000,-0.02510
500.000,-0.10567
500.000,-0.11709
500.000,-0.08586
500.000,-0.04126
332.356,-0.47848
190.127,0.24514
117.302,0.62368
0.96774,0.34603
153.959,0.01948
229.717,-0.41236
296.188,-0.53780
336.755,-0.35766
351.906,-0.03169
338.710,0.20759
328.446,0.38433
337.243,0.35989
340.665,0.08961
319.648,-0.15078
294.233,-0.13285
289.834,-0.00294
277.615,-0.06613
264.418,-0.06224
256.109,-0.01476
257.576,0.02456
256.109,-0.01192
249.756,-0.02315
253.177,0.03799
252.199,0.00772
194.037,-0.15503
112.414,-0.00474
0.72825,0.29297
0.51320,0.17880
0.76735,0.07010
119.746,-0.15657
172.532,-0.24510
276.637,-0.05529
200.880,-0.62242
250.733,0.44964
265.885,0.26723
276.637,0.12685
282.014,0.02635
288.856,-0.00954
292.278,-0.04891
291.789,-0.05976
263.930,-0.11217
232.160,-0.00112
224.829,0.13679
220.430,0.04432
224.829,-0.02240
223.851,-0.09297
217.009,-0.07993
216.520,0.01025
211.144,0.01688
212.121,0.05096
210.655,0.01941
209.189,0.00567
211.632,0.01066
211.144,-0.01494
211.632,-0.00822
210.166,-0.00956
211.144,0.00770
211.632,0.00207
212.610,0.00056
187.195,-0.07660
179.863,0.07346
189.150,0.09623
216.031,0.03667
254.154,-0.04973
168.622,-0.46137
216.031,0.40817
262.463,0.17019
326.491,-0.02817
377.810,-0.19568
399.804,-0.20752
405.670,-0.03153
405.181,0.12880
372.434,0.08362
336.755,0.13374
317.693,0.15206
279.570,-0.04913
188.172,-0.23000
0.58162,-0.12915
0.03910,0.33507
0.44477,0.36343
0.89443,-0.19038
124.633,-0.43547
148.094,-0.31450
108.504,-0.20776
0.20528,0.07643
0.00000,0.59541
0.09775,0.41308
0.86999,0.17404
163.734,-0.29222
240.469,-0.39753
283.969,-0.34237
295.699,-0.10292
287.879,0.15549
296.188,0.34993
260.020,0.10083
268.328,0.21593
162.757,-0.32203
134.409,0.17883
215.543,0.36357
255.132,-0.31590
281.036,-0.41632
254.643,-0.32666
197.458,0.00252
148.583,0.32935
153.470,0.46462
178.886,0.15740
194.037,-0.19385
209.677,-0.23668
175.464,-0.28524
0.94819,-0.11850
0.57185,0.33160
100.196,0.46361
167.644,0.04517
199.902,-0.39365
218.475,-0.31401
209.677,-0.12462
202.835,0.14728
195.992,0.21726
190.616,0.15511
207.234,0.10886
218.475,-0.06957
238.025,-0.09481
248.289,-0.12396
268.817,-0.02201
290.323,0.00533
282.502,-0.07053
281.525,0.06396
276.637,0.07614
278.104,0.07375
303.030,0.07800
0.50342,-0.83948
0.00489,0.72864
0.00000,0.58133
0.30792,0.00904
0.96285,-0.31449
165.200,-0.44226
238.514,-0.28844
319.159,-0.04363
332.356,-0.08504
313.783,0.14199
305.474,0.38964
300.587,0.31050
306.452,0.12494
298.143,-0.12775
291.300,-0.16191
275.660,-0.15393
263.441,-0.05747
256.109,0.00717
245.357,0.00111
230.205,-0.00058
217.986,0.03106
217.498,0.05989
212.610,-0.00964
161.779,-0.15298
0.36657,-0.18136
0.00000,0.43473
0.00000,0.30044
0.00489,-0.09876
0.65982,-0.07567
138.807,-0.24702
196.481,-0.29261
260.508,-0.07260
206.256,-0.25167
257.576,0.55658
271.261,0.23389
282.991,0.06361
293.744,-0.02776
299.609,-0.08112
316.716,-0.03791
316.227,-0.10810
281.525,-0.13721
251.711,0.05737
243.891,0.17175
238.514,0.05674
237.048,-0.03662
236.070,-0.07853
227.761,-0.08525
225.318,-0.00241
217.498,0.00677
220.430,0.06075
220.430,0.01602
221.408,0.00116
217.009,-0.02048
208.211,-0.01206
194.526,0.00230
138.319,-0.09436
0.13196,-0.13274
0.00000,0.49493
0.00000,0.17721
0.00000,-0.17267
0.00000,-0.26227
0.00000,-0.17563
0.00000,-0.04439
0.00000,0.05167
0.00000,0.08998
0.00000,0.08230
0.00000,0.05170
0.00000,0.01831
0.00000,-0.00621
0.00000,-0.01840
0.00000,-0.02020
0.00000,-0.01575
0.00000,-0.00914
0.00000,-0.00317
0.00000,0.00081
0.00000,0.00266
0.00000,0.00287
0.00000,0.00218
0.00000,0.00121
0.00000,0.00037
0.00000,-0.00017
0.00000,-0.00041
0.00000,-0.00041
0.00000,-0.00030
0.00000,-0.00016
0.00000,-0.00004
0.00000,0.00003
0.00000,0.00006
0.02444,0.00699
0.29326,0.06707
0.45943,-0.05766
0.62561,-0.05671
0.54252,-0.08952
0.72336,0.11047
168.133,0.28503
293.255,0.01398
490.714,-0.04353
499.022,-0.84100
500.000,-0.11937
500.000,0.40483
500.000,0.46163
499.511,0.25576
500.000,0.02310
499.511,-0.13312
500.000,-0.17197
494.624,-0.15865
431.085,-0.23956
382.209,0.09018
383.187,0.30666
400.782,0.10970
453.568,-0.01628
498.045,-0.21901
486.315,-0.33662
476.540,0.00751
499.022,0.28683
500.000,0.10520
500.000,0.04098
500.000,0.00741
500.000,-0.01767
401.760,-0.31000
116.325,-0.47330
0.02444,0.88120
0.00000,0.79492
0.00000,-0.16361
0.00000,-0.60968
0.01466,-0.52068
0.00000,-0.23244
0.00000,0.05425
0.00000,0.19884
0.00000,0.21472
0.00000,0.15476
0.00489,0.07403
0.00000,0.00089
0.00000,-0.03503
0.00000,-0.04759
0.00000,-0.04218
0.00000,-0.02798
0.06354,0.00517
0.34213,0.05379
0.49853,-0.06537
0.51320,-0.08778
0.96285,0.13245
157.869,0.06726
179.863,-0.18120
217.498,-0.01241
289.834,0.13933
357.282,-0.00132
419.844,-0.06756
498.534,0.01199
499.511,-0.22610
477.028,-0.00582
343.597,-0.09604
135.386,0.10166
0.03910,0.65001
0.00000,0.63805
0.00000,-0.23702
0.00000,-0.63996
0.00000,-0.53393
0.00000,-0.22123
313.294,0.94603
497.556,-0.44879
500.000,-0.96619
499.511,0.08231
500.000,0.67717
500.000,0.63437
500.000,0.30125
499.511,-0.02913
500.000,-0.21304
500.000,-0.25599
500.000,-0.19736
500.000,-0.10274
500.000,-0.01828
500.000,0.03480
500.000,0.05495
499.511,0.04972
500.000,0.03848
500.000,0.01630
499.511,0.00064
500.000,-0.00219
500.000,-0.00877
500.000,-0.00797
500.000,-0.00488
500.000,-0.00188
500.000,0.00011
500.000,0.00105
499.022,-0.00155
455.034,-0.12008
378.788,-0.04900
310.362,0.16229
265.885,0.21991
279.081,0.19241
325.513,-0.05935
405.181,-0.20705
389.052,-0.57541
325.513,-0.23831
338.710,0.49234
335.288,0.29481
331.378,0.09754
322.092,-0.03959
321.603,-0.04333
269.795,-0.21287
0.83089,-0.39737
0.01955,0.51630
0.00000,0.55243
0.00000,-0.06404
0.00978,-0.37028
0.24927,-0.27125
0.88465,-0.06007
107.527,-0.19572
0.95797,-0.06692
123.167,0.30911
176.442,0.30253
237.537,0.07813
301.564,-0.08461
365.591,-0.12804
419.844,-0.11423
465.298,-0.04014
498.534,0.01863
500.000,-0.00155
500.000,0.10788
477.028,0.05220
349.951,-0.22419
177.908,0.00186
117.791,0.59747
150.049,0.39853
338.221,0.12101
222.385,-155.864
234.604,-0.13806
170.088,0.05310
116.813,0.39640
149.560,0.62698
208.700,0.20069
269.795,-0.21416
311.828,-0.36783
295.699,-0.35023
230.694,-0.08131
195.015,0.37596
215.543,0.47314
245.357,0.08380
270.283,-0.21889
252.688,-0.36649
178.886,-0.26334
0.94819,0.10371
0.34702,0.34508
0.09775,0.29258
0.18573,0.06821
0.36657,-0.19310
0.69404,-0.23246
100.196,-0.19737
113.881,-0.11764
121.212,0.04720
131.965,0.16769
139.785,0.14467
142.229,0.07005
140.762,0.01394
147.605,0.01472
140.274,-0.07365
269.795,0.34540
0.92375,-100.745
128.055,0.53956
153.959,0.30565
174.976,-0.03555
195.503,-0.15191
207.722,-0.14457
233.627,0.00134
254.154,0.01001
253.666,-0.02858
231.672,-0.00410
224.340,0.14399
233.627,0.14103
249.267,0.01286
321.114,0.06811
383.675,-0.18120
363.636,-0.42921
329.423,-0.05361
355.816,0.41485
390.518,0.23518
416.911,-0.04225
426.686,-0.16708
430.596,-0.09700
423.265,-0.02683
415.445,0.05517
352.884,-0.08677
229.717,-0.08445
112.903,0.21139
0.36657,0.33715
0.25904,0.22972
0.50342,-0.12169
0.86022,-0.36719
216.031,-0.08822
112.414,-0.90968
172.532,0.48296
204.301,0.34914
224.340,0.14789
248.289,0.07943
262.952,-0.01247
286.901,0.00566
292.766,-0.08263
265.885,-0.12678
231.183,0.00876
217.986,0.15705
216.520,0.09041
217.498,-0.04322
189.150,-0.18920
162.757,-0.05618
159.335,0.09978
173.021,0.08380
205.767,0.01931
284.946,0.04226
324.536,-0.24722
300.587,-0.29606
305.474,0.17931
326.002,0.28750
338.221,0.10607
356.794,0.01311
362.170,-0.09801
365.591,-0.07131
327.957,-0.13883
303.519,0.07792
286.413,0.12026
278.592,0.06450
392.473,0.30702
255.621,-0.89853
243.891,0.21709
222.874,0.24886
145.161,-0.04810
0.35679,-0.03989
0.00489,0.32982
0.09775,0.18476
101.173,0.04440
203.324,-0.33808
216.031,-0.66314
145.161,-0.36793
0.10753,0.15062
0.01466,0.96272
0.00000,0.45539
0.00000,-0.09247
0.00000,-0.32529
0.02444,-0.29031
0.27370,-0.09743
0.51320,-0.05264
0.53275,-0.06274
0.63050,0.08927
0.89932,0.16613
116.325,0.06713
137.830,-0.02124
156.892,-0.03540
168.622,-0.03448
189.150,0.03269
180.352,-0.06853
182.796,0.05093
177.908,0.02688
239.003,0.20494
183.773,-0.38900
132.942,-0.06161
138.319,0.30952
136.364,0.08689
131.965,-0.07127
129.032,-0.09489
130.499,-0.05349
130.499,-0.03043
134.409,0.01276
114.370,-0.04869
0.97263,0.04886
105.083,0.14433
120.235,0.04512
124.633,-0.09173
132.454,-0.06281
134.897,-0.04098
133.431,-0.00247
135.386,0.04550
128.543,0.01208
128.543,0.04243
127.077,0.00935
130.987,0.00451
142.717,0.00004
142.717,-0.06868
149.560,-0.00772
158.847,0.01219
170.577,0.01221
172.043,-0.02974
153.959,-0.04965
151.026,0.08673
143.695,0.04545
252.688,0.33943
131.965,-0.77166
131.476,0.23484
154.448,0.30630
167.644,0.01143
175.953,-0.11879
185.728,-0.08973
196.970,-0.03053
200.391,-0.01496
195.015,0.00735
154.448,-0.04470
125.122,0.12045
115.347,0.16216
104.106,0.01046
0.96774,-0.06698
0.94330,-0.07817
0.96774,-0.05686
0.98240,-0.04313
109.482,0.01827
108.016,-0.02541
122.678,0.06524
133.920,0.02042
134.409,-0.02845
133.920,0.00620
128.055,0.01371
137.830,0.07320
153.470,0.02258
153.959,-0.08648
151.026,-0.05235
108.993,-0.10382
0.72825,0.08309
0.45455,0.14358
0.06354,0.02394
0.78690,0.30259
0.00489,-0.55845
0.00000,0.04265
0.00000,0.08051
0.00000,0.02131
0.00000,-0.00973
0.20039,0.04813
0.87977,0.12126
152.004,-0.09236
189.150,-0.21463
186.706,-0.15927
193.548,0.14349
203.812,0.21320
210.166,0.11382
204.790,-0.01267
205.767,-0.01276
206.745,-0.04116
207.722,-0.05338
202.346,-0.06276
207.234,0.00972
213.099,0.00388
232.649,0.03138
260.508,0.00576
279.081,-0.06526
292.766,-0.04103
298.143,-0.00313
289.345,0.01441
289.834,0.10054
277.126,0.02421
243.891,-0.04165
245.357,0.11978
270.772,0.07250
409.091,0.22130
339.687,-0.83481
295.210,-0.11259
101.173,-0.13727
0.01466,0.72180
0.00000,0.74081
0.00000,-0.04370
0.00000,-0.45854
0.00000,-0.44281
0.00000,-0.22692
0.00000,-0.00793
0.00000,0.12251
0.00000,0.15594
0.00000,0.12457
0.00000,0.06797
0.00000,0.01543
0.63539,0.16133
156.403,-0.00787
225.318,-0.28676
338.710,-0.06278
434.018,-0.11569
492.669,-0.11678
500.000,-0.03508
500.000,0.22433
499.022,0.28432
462.854,0.06659
414.467,0.00341
407.625,0.11464
404.203,-0.07017
378.299,-0.25029
363.148,-0.11903
347.507,-0.04031
448.680,0.34439
317.693,-0.72447
310.362,0.31431
323.069,0.35627
326.979,0.04795
326.002,-0.10339
323.558,-0.10007
326.491,-0.02829
320.626,-0.02752
294.721,-0.03918
242.913,-0.01823
192.571,0.10846
134.897,0.09214
0.31769,-0.07530
0.00000,0.24125
0.00000,0.09512
0.00000,-0.18502
0.00000,-0.24168
0.00489,-0.14089
0.00000,-0.01535
0.01955,0.08133
0.74780,0.30168
156.403,0.03926
218.475,-0.19907
249.267,-0.21018
268.328,-0.00464
185.239,-0.13066
0.18573,0.02147
0.00000,0.83854
0.00000,0.30878
0.00000,-0.26454
0.00000,-0.43912
0.00000,-0.32622
0.20039,-0.06592
0.00978,-0.08722
0.00000,0.15906
0.00000,0.17755
0.01466,0.11378
0.18573,0.08013
0.57674,0.03328
122.678,-0.02079
183.284,-0.15346
180.352,-0.30889
199.413,0.08003
294.233,0.39000
352.884,-0.04448
377.810,-0.20877
415.445,0.00404
430.108,0.00359
316.716,-0.28700
159.824,0.07074
0.19550,0.44123
0.00000,0.65105
0.00000,-0.02043
0.00000,-0.48609
0.00000,-0.49274
0.00489,-0.25642
0.11730,0.02336
0.49853,0.21225
111.926,0.20335
155.914,-0.00897
216.031,0.03442
319.648,0.13227
397.361,-0.11535
484.848,-0.05760
500.000,-0.22169
499.511,0.03580
499.511,0.22610
499.511,0.19530
419.355,-0.16223
273.705,-0.16368
191.105,0.33449
172.043,0.32808
131.965,-0.20249
0.42033,-0.46651
0.00978,-0.04036
0.00000,0.12538
0.00000,-0.02016
0.00000,-0.07545
0.00000,-0.03331
0.00000,0.03115
0.00000,0.06952
0.52297,0.21996
162.268,0.16513
216.031,-0.32417
176.442,-0.45709
0.95308,-0.02831
0.48387,0.47511
0.26882,0.42381
0.43500,0.16983
0.40078,-0.26292
0.65494,-0.21766
0.35679,-0.36135
109.971,0.22980
0.07820,-0.46289
0.00000,0.33445
0.00000,0.30509
0.00000,0.07479
0.00000,-0.06969
0.00000,-0.10323
0.00000,-0.07364
0.00000,-0.02809
0.00978,0.00962
0.48387,0.15403
127.566,0.06942
282.502,0.08365
384.653,-0.37562
477.517,-0.24017
499.511,-0.17080
500.000,0.17657
500.000,0.37477
500.000,0.29193
500.000,0.09238
500.000,-0.07614
500.000,-0.15437
500.000,-0.15021
500.000,-0.09996
500.000,-0.03988
496.579,-0.00277
491.202,0.02966
184.262,-0.80674
0.28348,0.74649
0.00000,100.826
0.00000,0.13036
0.00000,-0.53181
0.00000,-0.60351
0.00000,-0.34418
0.00000,-0.04064
0.00000,0.15564
0.00000,0.21666
0.00000,0.18093
0.00000,0.10351
0.00000,0.02779
0.00000,-0.02358
0.01466,-0.04193
110.459,0.25738
267.840,0.00116
369.990,-0.49317
436.950,-0.37029
466.276,-0.05126
437.439,0.13840
323.558,0.16584
121.701,0.18529
0.04399,0.67183
0.00000,0.54811
0.00000,-0.29576
0.00000,-0.66481
0.00000,-0.54249
0.00000,-0.22500
0.30303,0.14106
121.212,0.34644
232.160,0.14663
378.788,0.03876
485.337,-0.23467
499.022,-0.33683
488.759,0.10149
439.394,0.28072
427.175,0.47278
417.889,0.18781
397.849,-0.13533
360.215,-0.27482
296.188,-0.25206
159.824,-0.25166
0.05865,0.07734
0.00000,0.68865
0.00000,0.09245
0.00000,-0.32191
0.00000,-0.34941
0.00000,-0.17611
0.00000,0.01151
0.00000,0.12237
0.00000,0.14591
0.00000,0.11165
0.00000,0.05643
0.00000,0.00724
0.00000,-0.02336
0.00000,-0.03439
0.00000,-0.03132
0.00000,-0.02131
0.00978,-0.00750
127.077,0.35210
188.661,-0.29685
177.419,-0.46016
162.268,-0.00260
158.847,0.30142
142.229,0.21700
160.313,0.21150
186.217,-0.00381
163.245,-0.29905
153.470,-0.08902
162.757,0.06522
156.403,-0.02549
146.628,-0.01609
158.358,0.08040
188.661,0.06314
196.481,-0.11397
205.767,-0.05444
199.413,-0.03363
228.739,0.15480
310.850,0.19358
214.565,-0.59503
208.211,0.23002
267.840,0.42940
285.924,-0.10170
191.593,-0.49330
103.617,0.01982
0.41056,0.33137
0.01955,0.25878
0.00000,0.08537
0.00000,-0.19336
0.00000,-0.26002
0.17107,-0.11612
0.80645,0.08544
130.010,-0.06141
191.593,-0.00108
247.312,0.00633
249.267,-0.10013
239.980,0.09010
270.283,0.31906
279.081,0.05981
236.070,-0.18725
188.661,-0.03866
130.499,0.03210
0.95308,0.12638
0.91398,0.09067
0.81134,-0.13261
201.857,0.20113
0.76246,-0.92005
124.145,0.37276
174.487,0.27906
220.430,0.01463
230.205,-0.17770
236.070,-0.03249
254.154,0.12507
269.795,0.08728
250.733,-0.06921
209.189,-0.04623
180.352,0.11052
164.223,0.10988
153.959,0.00088
145.161,-0.08795
170.088,-0.00838
222.385,-0.01950
277.615,-0.11764
320.137,-0.14760
350.440,-0.05423
358.749,0.02809
351.906,0.11543
342.620,0.16842
317.204,0.07906
257.576,-0.04962
218.475,0.08549
247.801,0.21093
248.289,-0.20508
228.250,-0.29328
190.616,-0.15431
242.424,0.31460
302.542,0.08408
283.969,-0.34036
372.434,0.24449
405.670,-0.10436
352.395,-0.28808
322.581,0.19356
282.991,0.24582
210.166,0.06754
159.335,0.12187
114.370,0.00984
0.94330,-0.03901
108.016,-0.06705
128.055,-0.17798
135.875,-0.21239
146.628,-0.05669
191.593,0.15890
234.604,0.07419
249.756,-0.06073
264.418,0.03260
283.480,0.09924
293.744,0.04279
304.008,0.02289
309.384,-0.01496
305.474,-0.04403
308.407,0.00842
312.805,0.00073
317.204,-0.02001
306.452,-0.06820
274.682,-0.06302
243.402,0.05367
192.082,0.02748
228.739,0.31815
137.830,-0.38903
0.93353,0.03365
120.235,0.29245
147.605,-0.02470
162.757,-0.22664
177.908,-0.15166
204.301,0.00894
231.672,0.05550
224.340,-0.03899
179.863,-0.02424
181.329,0.28490
220.919,0.23767
223.851,-0.17634
207.722,-0.22446
178.397,-0.09491
155.425,0.07684
135.386,0.10090
128.543,0.08146
132.942,0.01135
154.936,-0.02644
202.835,-0.02750
285.924,-0.01312
343.109,-0.20172
374.878,-0.16000
382.209,-0.00151
376.833,0.15705
373.412,0.22605
365.103,0.12994
347.996,0.00171
346.530,0.00001
345.552,-0.07772
395.894,0.03977
348.485,-0.40445
243.891,-0.23615
228.739,0.46639
214.565,0.25312
139.296,-0.19230
0.36657,-0.15842
0.00000,0.23939
0.00000,0.15841
0.00000,-0.13470
0.00000,-0.21937
0.00000,-0.14095
0.00000,-0.02087
0.00000,0.06422
0.00000,0.09347
0.00000,0.07965
0.00000,0.04603
0.01955,0.01771
0.68915,0.17127
142.229,-0.06815
176.931,-0.30467
196.481,-0.15726
239.003,0.13762
279.081,0.13039
286.413,-0.02168
264.907,-0.03413
238.025,0.07991
193.060,0.06040
134.897,0.03194
131.476,0.18990
150.538,0.01104
174.487,-0.18971
285.435,0.02312
215.054,-0.71975
288.368,0.34959
414.956,0.39621
499.022,-0.13408
499.511,-0.38294
500.000,0.04695
499.511,0.26554
499.511,0.23457
500.000,0.09182
498.534,-0.04649
496.579,-0.10726
427.175,-0.29637
251.711,-0.31040
0.73314,0.22812
0.01466,0.69506
0.00000,0.34056
0.00000,-0.32125
0.03421,-0.50734
0.36168,-0.27140
0.49853,-0.17483
0.92864,0.13306
162.268,0.23386
219.941,0.07088
234.604,-0.08764
263.441,0.11417
314.272,0.18962
344.575,-0.01823
381.720,-0.02811
399.804,-0.10001
452.102,0.06702
424.731,-0.24401
353.861,-0.11998
369.990,0.42922
370.479,0.10915
377.322,-0.07026
391.984,-0.12167
414.467,-0.10238
428.152,-0.10329
420.332,-0.07949
384.653,-0.01434
360.215,0.17652
354.839,0.20589
346.530,0.03139
338.710,-0.06723
334.800,-0.07736
322.092,-0.09191
304.008,-0.04281
299.609,0.06295
285.435,0.00715
255.621,-0.03274
227.761,0.03559
173.509,-0.02613
113.392,0.03354
0.77713,0.13890
0.78201,0.12259
0.90420,-0.06635
131.476,-0.10172
165.200,-0.19507
247.312,0.02342
236.559,-0.30276
213.099,0.00917
264.907,0.47374
287.390,0.11078
302.053,-0.05426
313.783,-0.07069
317.204,-0.06269
314.272,-0.02812
295.699,-0.02725
251.222,-0.03572
215.054,0.09469
173.509,0.06224
110.948,-0.04021
0.43988,-0.01401
0.00489,0.08202
0.00000,0.10832
0.00000,-0.10994
0.00000,-0.17671
0.29326,-0.02785
0.86510,0.04122
134.897,-0.06513
178.886,-0.04528
220.430,0.02880
218.964,-0.03869
223.851,0.14202
228.739,0.15513
241.447,0.09687
296.188,0.09863
173.998,-0.62506
198.436,0.38240
187.683,0.07717
185.728,-0.03067
194.526,-0.05816
207.234,-0.07669
214.076,-0.08307
198.436,-0.08302
145.161,-0.05416
0.89443,0.13466
0.87977,0.33475
122.190,0.15713
154.448,-0.17090
182.796,-0.26009
208.700,-0.16186
225.318,-0.04403
238.514,0.07212
243.891,0.10188
248.778,0.10804
248.289,0.05367
244.868,0.01131
252.688,0.02215
239.980,-0.09425
222.385,-0.05613
221.408,0.05384
205.767,-0.03031
337.732,0.40654
159.824,-100.653
195.992,0.52888
218.964,0.28864
229.717,-0.05199
238.514,-0.13347
245.846,-0.09068
258.065,-0.00574
257.576,-0.01529
226.295,-0.04997
131.965,-0.09682
0.87488,0.31366
0.92375,0.31882
124.633,0.01907
153.959,-0.27229
179.374,-0.28865
198.925,-0.15030
217.498,0.02166
230.694,0.10212
243.402,0.13021
247.801,0.07675
257.576,0.06795
267.351,0.01226
270.772,-0.04822
244.379,-0.12390
228.739,0.03476
216.520,0.06313
257.087,0.16739
193.060,-0.36533
139.785,-0.03988
183.773,0.40867
223.363,0.03080
244.379,-0.23747
235.582,-0.24744
230.694,0.00945
238.514,0.16556
238.025,0.09106
212.121,-0.02853
197.947,0.06278
200.880,0.08419
202.346,-0.03064
206.745,-0.07131
209.189,-0.07586
201.857,-0.06430
195.503,0.01390
182.796,0.02949
176.931,0.06818
179.863,0.05714
184.262,-0.00719
187.195,-0.04737
195.503,-0.02302
200.880,-0.02763
214.076,0.01631
208.700,-0.04805
202.346,0.01225
206.256,0.07755
197.458,-0.00406
332.356,0.40833
164.712,-0.98389
184.751,0.44645
203.324,0.32138
205.279,-0.03159
206.745,-0.11969
209.677,-0.08693
218.964,-0.02000
223.851,-0.01721
209.189,-0.04599
177.908,-0.00421
170.088,0.15638
175.464,0.10966
184.262,-0.01951
190.127,-0.09953
194.037,-0.08565
196.970,-0.03171
199.413,0.01424
198.925,0.02714
200.391,0.04165
201.369,0.02428
203.324,0.00927
202.835,-0.01338
204.301,-0.00522
199.902,-0.02410
200.880,0.01292
200.880,0.00206
211.144,0.02544
212.121,-0.03999
197.458,-0.06404
198.436,0.06359
190.616,0.01509
302.053,0.34781
169.599,-0.79531
168.133,0.29226
191.593,0.34490
200.880,-0.00064
204.790,-0.13499
208.211,-0.10335
227.273,0.00898
252.688,0.01668
255.621,-0.07703
234.115,-0.06290
232.649,0.13807
253.666,0.16438
254.154,-0.05674
219.941,-0.16550
224.829,0.10967
103.617,-0.31167
0.02444,0.14204
0.00000,0.52790
0.00000,0.05728
0.00000,-0.25693
0.00000,-0.28130
0.00000,-0.15308
0.00000,-0.00965
0.00000,0.07978
0.00000,0.10467
0.00000,0.08483
0.00000,0.04679
0.00000,0.01082
0.00000,-0.01290
0.39589,0.08949
0.32258,-0.19135
0.02933,-0.13505
0.35191,0.23380
0.67937,0.07061
0.34702,-0.25479
0.00489,-0.03419
0.34213,0.30930
143.695,0.27350
244.868,-0.21111
230.694,-0.64781
168.133,-0.21961
187.683,0.55956
240.958,0.45805
289.345,0.01042
315.249,-0.26048
322.092,-0.23012
319.159,-0.05973
317.204,0.08698
365.103,0.24938
397.849,-0.02680
422.287,-0.12887
448.680,-0.06649
468.231,-0.02646
456.500,-0.05752
368.524,-0.13868
169.599,-0.12968
0.22483,0.51091
0.00000,0.72844
0.00000,0.00344
0.00000,-0.50777
0.00000,-0.52240
0.03910,-0.26323
0.00000,-0.03290
0.07331,0.18557
251.711,0.87385
495.601,-0.07423
499.511,-120.547
500.000,-0.20045
499.511,0.51228
491.691,0.57835
379.277,0.04787
253.177,0.10462
199.902,0.32737
222.874,0.14688
229.228,-0.43697
219.941,-0.54776
295.210,-0.03648
342.620,-0.15503
368.524,-0.09281
316.227,-0.09624
205.279,0.12704
169.599,0.65510
198.925,0.50499
208.700,-0.16191
246.334,-0.29023
277.615,-0.33894
312.317,-0.18590
356.305,-0.00260
419.355,0.12143
449.169,-0.02186
498.534,0.12025
431.574,-0.24048
276.149,-0.11209
158.847,0.47577
0.04399,0.26913
0.00000,0.53464
0.00000,-0.18411
0.00000,-0.55057
0.00000,-0.46993
0.00000,-0.19799
0.00000,0.04993
0.00000,0.18164
0.00000,0.19881
0.58162,0.31057
190.616,0.22788
317.693,-0.22346
410.068,-0.41725
458.455,-0.27556
476.540,0.03627
452.590,0.18862
427.175,0.33511
386.119,0.20657
332.356,0.03944
277.615,-0.04762
254.643,-0.01249
266.373,-0.05169
291.300,-0.17715
281.036,-0.31885
227.273,-0.21566
190.127,0.18066
157.380,0.26339
186.217,0.33649
156.892,-0.18047
0.72336,-0.29568
0.78201,0.27878
105.083,0.14484
136.852,-0.10043
170.088,-0.18258
225.318,-0.06443
241.447,-0.15611
240.958,-0.01494
236.559,0.14423
266.373,0.27691
308.407,0.11485
334.311,-0.12475
345.064,-0.16766
350.440,-0.06426
348.485,0.01312
343.109,0.05643
337.732,0.06070
331.867,0.02857
322.092,-0.01570
315.249,-0.01276
308.895,-0.02009
299.609,-0.03070
296.188,0.00369
296.676,0.00781
272.239,-0.08049
255.621,0.03331
249.267,0.08201
261.486,0.07483
285.924,-0.00365
175.953,-0.46999
196.970,0.40971
201.369,0.13873
205.767,-0.05730
212.121,-0.10443
219.941,-0.07496
227.273,-0.03047
221.896,-0.02503
194.037,-0.01964
175.953,0.11450
174.976,0.14304
174.487,0.01583
177.908,-0.05409
200.391,-0.02519
188.172,-0.17311
186.706,-0.00529
234.604,0.19406
335.288,0.15840
490.225,0.01234
500.000,-0.67496
500.000,-0.14860
499.022,0.28641
500.000,0.36691
439.394,0.04105
306.452,-0.11990
127.077,-0.00344
0.04888,0.36591
0.00000,0.43597
0.10264,-0.21619
0.23460,-0.54072
0.87488,-0.30083
185.239,-0.11526
205.279,-0.29531
268.328,0.22496
286.901,0.16790
300.587,0.23798
238.025,0.00250
161.779,0.13894
167.155,0.42429
230.694,0.17439
273.705,-0.37632
318.671,-0.41396
413.001,-0.09381
490.225,-0.12374
455.034,-0.32747
338.710,-0.03178
257.576,0.59150
183.284,0.50804
118.768,0.17923
0.32747,-0.19997
0.00489,-0.09591
0.00000,-0.14404
0.00000,-0.26232
0.00000,-0.20427
0.00000,-0.05613
0.00000,0.07220
0.01466,0.13585
0.00000,0.11660
0.00000,0.08707
0.18573,0.08980
0.29814,-0.04216
0.00978,-0.18099
0.00000,0.06818
0.00000,0.05904
0.00000,0.00181
0.01466,-0.02585
188.661,0.49292
369.013,-0.21262
497.067,-0.61792
354.350,-103.132
138.319,0.13760
0.48876,136.747
0.63539,109.540
0.70381,-0.07546
0.99218,-0.57977
217.986,-0.39697
468.231,-0.11906
499.022,-107.014
476.051,-0.32612
300.587,0.11318
126.588,0.89764
0.15640,106.689
0.00978,0.62552
0.00000,-0.29342
0.58162,-0.56779
249.267,-0.31658
221.896,-119.833
137.341,-0.39901
217.986,0.99967
300.587,0.62575
413.978,0.19941
383.675,-0.57584
245.357,-0.42303
127.077,0.36112
100.684,0.74015
134.409,0.32494
187.195,-0.27485
298.631,-0.37317
389.052,-0.52921
495.601,-0.22968
499.511,-0.27996
500.000,0.24903
500.000,0.47337
500.000,0.37154
500.000,0.14303
494.624,-0.06775
327.468,-0.60486
173.509,0.03991
0.75758,0.45131
0.08798,0.24176
0.39589,0.12598
122.678,-0.23627
203.812,-0.52959
339.687,-0.23934
170.577,-100.309
144.673,0.70618
127.566,0.82580
0.51320,0.23029
0.00489,0.13135
0.00489,0.07533
0.00000,-0.23149
0.00000,-0.31765
0.00000,-0.22379
0.00000,-0.07394
0.00000,0.04347
0.00000,0.09781
0.01466,0.10189
0.00000,0.05776
0.00000,0.03311
0.00000,0.00349
0.00000,-0.01562
0.00000,-0.02199
0.00000,-0.01928
0.00000,-0.01242
0.00000,-0.00531
0.00000,-0.00009
0.00000,0.00265
0.00000,0.00334
0.00000,0.00275
0.42522,0.12220
218.964,0.34125
370.479,-0.30095
473.607,-0.52956
494.135,-0.38180
499.511,0.19200
500.000,0.46359
500.000,0.39174
500.000,0.16029
500.000,-0.05271
500.000,-0.16532
500.000,-0.17752
500.000,-0.12798
500.000,-0.05981
500.000,-0.00254
500.000,0.03120
500.000,0.04182
500.000,0.03651
500.000,0.02394
500.000,0.01086
487.781,-0.03360
483.871,0.03042
499.022,0.07136
500.000,-0.06171
397.361,-0.34322
157.380,-0.30670
0.05376,0.64848
0.00000,0.88646
0.00000,-0.04764
0.00000,-0.56809
0.00000,-0.54215
0.44477,-0.13581
203.324,0.30008
279.081,-0.27641
272.727,-0.31614
173.021,-0.03889
0.18084,0.36860
0.00000,100.777
0.00000,0.34614
0.00000,-0.30297
0.00000,-0.50650
0.50342,-0.24746
334.311,0.44919
496.579,-0.66559
499.511,-0.90121
500.000,0.14639
468.719,0.60463
298.143,0.26978
172.532,0.63752
109.971,0.52565
140.762,0.14918
236.559,-0.36692
337.732,-0.74693
371.945,-0.81057
478.006,0.02983
380.743,-0.35748
384.653,0.70812
331.378,0.45724
219.941,0.13769
129.521,0.21282
0.70870,0.14084
0.67449,0.00982
0.93842,-0.24091
120.723,-0.40197
0.72336,-0.51130
0.59629,0.08575
159.824,0.56864
282.014,0.17446
326.002,-0.40508
386.119,-0.10647
383.187,-0.09118
382.209,0.20558
394.917,0.30506
459.922,0.29052
499.511,-0.14561
500.000,-0.33261
500.000,-0.11760
459.922,-0.07111
252.199,-0.35466
152.981,0.61907
130.987,0.62894
173.021,0.13538
233.138,-0.40381
344.575,-0.41235
383.187,-0.60747
318.182,-0.41365
435.973,0.85888
446.725,0.13503
290.323,-0.38811
192.082,0.41217
258.065,0.88455
380.743,0.15022
496.579,-0.59810
500.000,-0.97776
500.000,-0.25853
477.028,0.21218
273.216,-0.08067
0.77713,0.54184
0.01955,0.93975
0.01955,0.38292
0.58162,-0.29177
195.992,-0.51093
270.772,-0.88155
238.025,-0.70671
203.324,0.19238
154.448,0.58560
0.86022,0.52338
0.11730,0.32333
0.00000,0.27141
0.00000,-0.11750
0.00000,-0.35453
0.00000,-0.32838
0.06843,-0.15172
0.18084,-0.00581
198.436,0.54323
254.643,-0.41741
266.373,-0.35626
305.474,0.18505
333.822,0.25449
397.849,0.29988
411.535,-0.09225
391.007,-0.16036
378.299,0.04132
393.451,0.15349
399.804,-0.02773
412.512,-0.07841
395.894,-0.17762
304.985,-0.24864
152.493,-0.05237
0.63050,0.49126
0.64516,0.53084
149.560,0.13732
223.851,-0.50362
305.963,-0.52189
380.254,-0.29773
388.563,-0.17184
325.513,0.06404
203.324,0.30934
116.325,0.63717
120.723,0.61422
169.599,0.03455
208.211,-0.52775
353.861,-0.23873
159.335,-135.456
139.296,0.51074
123.167,0.65650
105.083,0.31521
126.588,0.13564
0.62072,-0.39711
0.00489,-0.14926
0.00000,0.22163
0.84555,0.28020
240.958,0.02733
139.296,-112.102
0.02933,-0.24864
0.00000,0.91452
0.00000,0.52857
0.00000,0.01504
0.01955,-0.22805
0.70381,-0.05993
202.835,-0.03269
205.767,-0.63530
209.677,-0.12485
342.620,0.62133
488.270,0.24333
499.511,-0.50764
500.000,-0.11483
500.000,0.23104
500.000,0.27163
500.000,0.13744
464.809,-0.11513
414.467,-0.11729
355.816,-0.04572
379.765,0.24875
173.021,-0.71721
117.302,0.41768
0.58651,0.25618
0.45455,0.10861
124.145,0.07460
177.908,-0.40195
0.75269,-0.79710
0.01955,0.11427
0.00978,0.66908
0.00000,0.33018
0.00000,-0.00485
0.00000,-0.15350
0.00000,-0.15215
0.00000,-0.08628
0.65982,0.16880
261.486,0.33086
206.256,-0.95795
0.05865,-0.59480
0.00000,108.278
0.00000,0.67448
0.07331,0.04509
407.136,0.80047
499.022,-158.017
499.511,-118.314
500.000,0.09751
500.000,0.71257
500.000,0.67472
500.000,0.34553
500.000,0.01736
500.000,-0.17724
431.574,-0.42170
220.919,-0.52300
0.05865,0.19071
0.00000,105.610
0.00000,0.14024
0.34213,-0.39242
189.638,-0.23067
228.250,-0.81964
197.458,-0.46598
150.538,0.24971
142.229,0.71123
211.632,0.69612
273.705,0.04071
337.732,-0.28170
406.647,-0.29239
445.259,-0.27260
446.725,-0.13158
429.619,0.09915
402.737,0.21828
374.878,0.20502
321.114,0.02065
211.144,-0.15955
0.74780,-0.05053
0.01466,0.28763
0.00000,0.24499
0.21505,-0.15239
0.95308,-0.23808
166.667,-0.35888
191.105,-0.35445
199.902,-0.00172
207.234,0.28576
248.289,0.42603
197.947,-0.07593
145.161,0.05294
144.184,0.26827
123.167,-0.04393
189.638,0.09892
238.514,-0.27162
272.727,-0.33460
350.440,-0.00736
421.310,-0.00817
441.349,-0.11536
450.635,0.08370
451.613,0.19552
440.860,0.15974
423.265,0.08541
399.804,0.00481
357.282,-0.09045
252.688,-0.22199
0.43500,-0.26114
0.00489,0.70217
0.00000,0.31858
0.00000,-0.27215
0.49853,-0.29642
328.446,0.31091
489.736,-0.73192
402.737,-116.095
279.081,0.15915
253.666,126.810
295.699,101.493
351.906,0.13858
268.328,-0.83636
0.84555,-0.69162
0.03421,0.38086
0.00000,0.51498
0.00000,-0.03827
0.00000,-0.33134
0.00000,-0.29857
0.00000,-0.12369
0.09286,0.06595
110.459,0.37746
157.380,-0.12713
114.858,-0.35612
0.46432,0.02196
0.23949,0.45789
0.05376,0.27457
0.12708,0.07431
0.51320,-0.08452
0.47410,-0.38467
0.00489,-0.32629
0.00000,0.16623
0.00000,0.16199
0.00000,0.06492
0.00000,-0.00076
0.00000,-0.02290
0.00000,-0.01945
0.00000,-0.00810
0.00000,0.00128
0.00000,0.00564
0.00000,0.00572
0.00000,0.00358
0.00000,0.00104
0.00000,-0.00084
0.00000,-0.00173
0.00000,-0.00178
0.00000,-0.00133
0.00000,-0.00074
0.00000,-0.00023
0.00000,0.00011
0.00000,0.00025
0.00000,0.00025
0.00000,0.00019
0.00000,0.00010
0.00000,0.00003
0.00000,-0.00002
0.32258,0.09140
182.796,0.30566
215.054,-0.52525
145.650,-0.53656
0.97263,0.22842
0.70870,0.50192
0.55718,0.31383
0.56207,0.05372
0.44477,-0.20805
0.42522,-0.18330
0.50831,-0.10267
0.65494,-0.04825
0.85044,-0.00940
0.92375,-0.02822
130.987,0.12625
0.96774,-0.16458
110.948,0.18655
0.35191,-0.13922
0.38612,0.30963
119.257,0.31982
162.757,-0.27114
182.307,-0.37825
180.841,-0.19056
174.487,0.07046
185.728,0.24129
245.846,0.28588
415.445,0.29490
498.534,-0.50874
500.000,-0.57471
500.000,0.03052
500.000,0.34455
500.000,0.32143
499.511,0.14766
500.000,-0.01403
500.000,-0.11048
500.000,-0.12656
499.511,-0.09534
500.000,-0.04240
500.000,-0.00516
500.000,0.01970
499.511,0.02742
494.624,0.01409
497.067,0.04361
500.000,0.01488
500.000,-0.01814
499.511,-0.01512
498.045,-0.00649
499.511,0.01196
500.000,0.00087
500.000,-0.00386
500.000,-0.00172
500.000,0.00034
458.944,-0.11533
406.647,0.00659
350.440,0.10323
260.997,0.01158
149.071,0.00941
0.17107,0.02471
0.00000,0.40264
0.00000,-0.01480
0.00000,-0.33003
0.00000,-0.31825
0.00000,-0.14096
0.00000,0.03530
0.00000,0.13221
0.00000,0.14538
0.00000,0.10590
0.00000,0.04972
0.11241,0.03389
0.02933,-0.09197
0.77713,0.18985
279.570,0.28234
491.691,-0.28586
499.511,-105.310
500.000,-0.11738
499.511,0.52053
500.000,0.58210
473.607,0.24573
178.397,-0.71030
0.06354,0.50509
0.00000,0.87222
0.00000,-0.12567
0.00000,-0.68013
0.13685,-0.58812
194.526,0.16866
382.698,-0.13398
495.112,-0.45059
496.579,-0.31499
343.597,-0.00498
0.33236,0.36263
0.00000,178.413
0.00000,0.64466
0.00000,-0.52754
0.00000,-0.89916
0.00000,-0.69016
0.00000,-0.28778
0.00000,0.04867
0.32258,0.31457
102.151,0.32624
174.976,0.07841
291.789,0.06354
250.244,-0.55852
323.069,0.33517
487.292,0.49398
499.511,-0.49624
500.000,-0.21482
500.000,0.13243
500.000,0.21965
500.000,0.13271
500.000,0.00854
500.000,-0.07429
500.000,-0.09799
499.511,-0.08010
457.478,-0.15899
373.900,-0.08522
443.304,0.59341
499.511,0.02688
500.000,-0.42165
500.000,-0.19753
470.186,-0.04400
362.170,-0.05669
278.104,0.33879
204.301,0.32281
126.100,0.07487
0.78201,-0.00626
0.37634,-0.15919
0.02444,-0.20131
0.60606,0.10834
146.139,-0.06608
0.03910,-0.87638
0.00000,0.43998
0.50342,0.60396
219.453,0.47303
365.591,-0.32510
408.602,-0.76426
342.620,-0.48130
316.716,0.46426
385.630,0.84286
488.270,0.32407
499.511,-0.50710
500.000,-0.35919
445.259,-0.20998
377.322,0.10904
337.732,0.33586
317.693,0.21403
314.272,-0.00247
313.783,-0.17826
277.615,-0.30260
117.302,-0.43771
0.02933,0.31779
0.00000,0.70428
0.24438,0.17058
140.762,-0.05274
226.295,-0.55983
140.762,-0.91043
0.03421,-0.09574
0.00000,0.99863
0.00000,0.56019
0.00000,0.01380
0.00000,-0.24852
0.00000,-0.26294
175.464,0.33689
396.872,-0.07552
498.045,-0.79296
499.511,-0.54035
499.511,0.31314
499.511,0.63627
499.511,0.48653
500.000,0.17330
500.000,-0.08904
500.000,-0.21115
498.534,-0.21611
398.827,-0.42240
247.312,-0.11578
200.880,0.59907
221.896,0.44247
263.441,-0.09716
262.952,-0.52164
260.508,-0.31026
240.469,-0.06976
174.487,0.03084
152.981,0.38837
252.199,0.57694
317.204,-0.17445
491.691,-0.04363
438.416,-0.98211
495.601,0.19053
475.562,0.12907
441.349,0.24317
428.152,0.32849
419.355,0.13836
418.866,-0.04405
410.557,-0.19081
386.119,-0.21259
351.417,-0.10387
332.845,0.07772
312.317,0.06028
324.047,0.11739
359.726,0.04209
375.855,-0.16318
340.665,-0.25022
285.924,-0.01323
231.672,0.20447
162.268,0.16597
0.91887,0.11053
102.639,0.25456
135.386,-0.06195
100.684,-0.50068
0.18573,-0.35362
0.00000,0.27742
0.00000,0.27569
0.00000,0.05191
0.00000,-0.07038
0.00000,-0.08086
0.00000,-0.04027
0.00000,0.00262
0.00000,0.02653
0.00000,0.03026
0.00000,0.02150
0.00000,0.00897
0.21017,0.05816
149.560,0.27829
244.379,-0.25596
287.390,-0.43257
325.024,-0.08728
364.614,0.18353
406.647,0.23530
339.198,-0.16556
0.37634,-0.52915
0.00000,119.884
0.00000,0.58462
0.72336,-0.10228
261.486,-0.36040
385.142,-0.96392
431.085,-0.77867
461.388,0.01497
499.022,0.55258
499.511,0.46439
497.067,0.36371
427.175,-0.01476
417.400,0.21344
361.681,-0.15787
291.789,-0.20481
0.72825,-0.52400
0.06354,0.53243
0.44966,0.51932
0.77224,-0.24225
105.083,-0.50782
123.167,-0.36698
150.049,-0.02804
156.403,0.09527
140.274,0.15801
118.280,0.22234
123.167,0.26974
165.200,0.16713
129.521,-0.34388
0.68915,-0.22649
0.78690,0.24622
124.145,0.17478
173.998,-0.10572
203.324,-0.26924
204.790,-0.20546
212.121,0.06689
205.279,0.12280
184.262,0.10821
185.728,0.17550
166.178,-0.02039
146.139,-0.04620
154.448,0.04126
130.010,-0.15080
226.784,0.27667
0.14663,-0.97222
0.00000,0.57904
0.00000,0.45583
0.00000,0.01950
0.15640,-0.15592
130.499,0.06529
220.919,-0.30392
308.407,-0.26868
373.412,-0.12758
402.248,0.02111
420.332,0.22710
420.332,0.23759
434.506,0.24170
434.995,0.02805
410.557,-0.13743
421.310,0.01879
452.590,-0.01179
449.169,-0.23378
369.990,-0.32663
274.682,0.03835
153.470,0.20217
0.09286,0.20316
0.00000,0.56200
0.00000,-0.03703
0.00000,-0.41136
0.00000,-0.39219
0.00000,-0.18323
0.00978,0.02684
0.00000,0.13459
0.00000,0.16421
0.00000,0.12411
0.00000,0.06128
0.00000,0.00664
0.00000,-0.02649
0.00000,-0.03784
0.43011,0.08804
126.588,0.05289
201.857,-0.17998
251.711,-0.24573
274.194,-0.11606
269.795,0.05560
258.065,0.21122
246.334,0.22206
0.90909,-0.29390
0.00489,0.30540
0.00000,0.47105
0.00000,-0.09137
0.43988,-0.25647
217.009,-0.01702
273.216,-0.71809
263.441,-0.46620
298.143,0.35313
239.492,0.20328
222.874,0.50998
358.260,0.73016
438.416,-0.27437
360.215,-0.93100
149.071,-0.55787
0.08309,0.62169
0.00000,0.99236
0.14663,0.17950
0.91398,-0.27695
157.869,-0.63188
169.110,-0.63001
174.976,-0.10452
210.166,0.35479
286.413,0.44646
359.238,0.13658
430.108,-0.05281
468.231,-0.18150
496.579,-0.05490
500.000,0.00463
500.000,0.10612
500.000,0.11090
499.511,0.04150
484.360,-0.07026
411.535,-0.21640
324.047,-0.01970
301.075,0.32133
338.221,0.23721
484.848,0.12780
499.511,-0.78682
472.629,-0.47997
449.169,0.14708
447.703,0.45374
464.321,0.35830
449.658,-0.01425
392.473,-0.19138
341.153,-0.00587
305.474,0.09845
296.676,0.08704
285.924,-0.09204
273.216,-0.14932
265.885,-0.08093
251.711,-0.04398
244.868,0.04766
237.537,0.05366
226.784,0.03109
212.121,0.01648
198.925,0.02649
189.638,0.02573
168.622,-0.03812
152.493,0.00302
123.656,-0.03247
0.83089,-0.02594
129.032,0.27927
0.03910,-0.52004
0.00489,0.30349
0.00000,0.16516
0.00000,-0.05118
0.00000,-0.12798
0.47898,0.04058
108.993,-0.03427
0.68426,-0.39609
0.01466,-0.05360
0.00000,0.47223
0.00489,0.25789
0.11730,0.02118
305.963,0.65706
493.157,-0.72792
500.000,-122.988
500.000,-0.11860
499.511,0.59190
500.000,0.65598
498.534,0.36405
403.715,-0.21768
285.435,-0.13737
222.874,0.19384
223.363,0.16804
199.902,-0.30383
0.97752,-0.56051
0.62072,0.07944
0.24438,0.12126
0.18573,0.15959
0.00000,-0.03153
0.00000,0.00487
0.00000,-0.02439
0.00000,-0.01900
0.00000,0.00620
0.00000,0.02620
0.00000,0.03104
0.00000,0.02333
0.00000,0.01038
0.00000,-0.00138
0.01466,-0.00443
113.392,0.30093
284.946,0.05456
323.558,-0.71951
244.379,-0.56503
283.480,0.63773
385.630,0.68073
498.045,0.11175
500.000,-0.57652
499.511,-0.21150
500.000,0.11011
500.000,0.18132
500.000,0.11159
500.000,0.01306
499.511,-0.05406
500.000,-0.06903
500.000,-0.05952
500.000,-0.03201
362.659,-0.39441
0.24927,-0.42975
0.00000,143.639
0.00000,0.55498
0.00000,-0.39672
0.00000,-0.66871
0.00000,-0.47102
0.00000,-0.14173
0.00000,0.10908
0.00000,0.21692
0.00000,0.20672
0.00000,0.13486
0.00000,0.05233
0.00000,-0.01029
0.00000,-0.04292
0.00000,-0.04940
0.00000,-0.03963
0.00000,-0.02372
0.00000,-0.00888
0.00000,0.00130
0.00000,0.00623
0.00000,0.00705
0.00000,0.00550
0.01955,0.00870
0.01955,-0.00628
0.16618,0.03808
0.13196,-0.06425
0.19062,0.00777
0.34702,0.03990
0.49853,-0.00545
154.448,0.22967
0.27859,-0.75429
0.54741,0.41897
0.66960,0.24926
0.75758,0.01666
0.90909,-0.06320
109.971,-0.08133
152.004,-0.00670
226.295,0.03496
264.907,-0.18660
312.805,-0.03894
329.912,-0.04067
302.542,-0.02470
283.480,0.20331
226.295,0.08567
181.329,0.14524
181.818,0.17723
206.256,-0.02989
193.548,-0.34833
149.071,-0.29917
106.061,0.00576
0.83089,0.21061
0.71359,0.16410
0.72825,0.05690
0.85044,-0.03680
0.77224,-0.15974
0.83089,-0.02588
109.482,0.07020
143.206,0.02602
263.441,0.21282
186.706,-0.67137
245.357,0.33997
267.840,0.13443
288.856,0.04384
327.468,0.05537
382.698,0.01598
436.461,-0.08809
450.635,-0.20894
424.731,-0.12756
388.074,0.10758
385.142,0.31027
401.760,0.17545
412.023,-0.09129
413.490,-0.19152
418.866,-0.10763
406.647,-0.08334
350.929,-0.09205
174.487,-0.22169
0.14174,0.33449
0.00000,0.81416
0.00000,0.09491
0.00000,-0.42800
0.02933,-0.46906
0.88954,-0.03402
229.717,0.04633
421.310,0.00737
498.045,-0.48666
500.000,-0.21357
499.511,0.39492
499.511,0.55219
499.511,0.35188
500.000,0.06501
500.000,-0.14396
479.472,-0.27705
379.277,-0.39902
239.003,-0.10556
0.81134,0.18647
0.63539,0.68232
107.527,0.21523
101.173,-0.55134
0.82600,-0.50529
0.56207,-0.17556
117.302,0.36570
213.099,0.24544
326.002,-0.00762
435.484,-0.16296
497.556,-0.24301
500.000,-0.12119
500.000,0.24908
499.022,0.33455
500.000,0.20821
500.000,0.01416
500.000,-0.11249
453.079,-0.28400
349.951,-0.24125
0.18573,-0.54773
0.01955,131.006
0.00000,0.46322
0.00000,-0.37880
0.00000,-0.60340
0.00000,-0.40763
0.00000,-0.10289
0.00000,0.12143
0.00000,0.21107
0.00000,0.19299
0.00000,0.12116
0.00000,0.04278
0.00000,-0.01476
0.00000,-0.04336
0.00000,-0.04754
0.00000,-0.03706
0.00000,-0.02148
0.00000,-0.00745
0.00000,0.00192
0.00000,0.00626
0.00000,0.00676
0.65982,0.19216
113.392,-0.11031
128.055,-0.24159
0.95797,-0.17530
114.858,0.28302
259.531,0.54483
202.835,-0.65648
138.807,-0.21214
0.69892,0.20070
0.06843,0.31129
0.00000,0.32455
0.00000,-0.04252
0.00000,-0.26205
0.21994,-0.18950
0.47410,-0.13900
0.56696,-0.10665
0.77713,0.07346
103.128,0.12273
107.527,0.02754
114.858,0.07141
135.386,0.10031
157.869,0.01846
144.673,-0.14805
123.167,-0.05164
115.347,0.09409
120.723,0.09412
134.897,0.00857
161.290,-0.04411
180.352,-0.11812
168.133,-0.15886
169.599,0.06346
166.178,0.08985
217.009,0.22763
172.043,-0.28654
110.948,-0.09653
136.852,0.38321
171.554,0.11434
219.941,-0.10704
289.834,-0.14835
374.389,-0.13115
269.306,-0.64576
109.971,-0.00717
0.05376,0.73640
142.229,120.438
211.144,-0.30800
200.391,-0.95226
187.683,-0.46721
184.262,0.04942
197.458,0.27979
223.851,0.23974
246.334,0.06097
279.081,0.00389
371.457,0.11576
423.754,-0.22566
418.377,-0.30874
398.827,0.00366
423.265,0.35114
379.277,-0.01526
326.491,0.02433
228.250,-0.04976
275.171,0.49654
0.78690,-0.73225
0.61584,0.37759
0.70381,0.19984
0.37146,-0.29597
0.00978,-0.24442
0.00000,0.03967
0.00978,0.04028
0.00000,0.01112
0.00000,0.02529
0.00000,0.03771
0.00000,0.03913
0.34702,0.12774
105.572,0.08498
126.100,-0.26330
0.99218,-0.25105
0.67937,0.06967
0.74780,0.32775
0.59140,0.07682
0.64516,0.04141
0.76246,-0.05471
0.86022,-0.12286
0.77713,-0.14959
0.83578,0.01670
0.99218,0.07044
137.341,0.08742
177.908,-0.01924
238.514,-0.01040
295.699,-0.07432
437.439,0.18877
289.345,-0.89889
280.059,0.48270
282.991,0.53423
283.480,0.16351
275.660,-0.12471
260.508,-0.20406
246.334,-0.13094
218.964,-0.09063
174.487,-0.03777
0.24927,-0.22568
0.00000,0.54498
0.14663,0.32138
0.60117,-0.06556
0.97752,-0.36551
125.122,-0.32896
162.268,-0.06512
194.037,0.06610
203.812,0.07744
210.166,0.14719
215.054,0.14300
230.205,0.10994
245.846,-0.00329
253.666,-0.09639
231.672,-0.16285
217.498,0.00855
282.991,0.28173
487.292,0.35795
499.511,-0.86822
471.652,-0.44854
381.720,0.04828
244.868,0.37485
175.464,0.72503
129.521,0.34391
104.106,-0.09889
0.86999,-0.36041
0.78690,-0.35583
0.55230,-0.27818
0.47410,-0.00669
103.128,0.27240
203.324,0.18436
264.418,-0.21068
0.36168,-0.94342
0.00000,0.83962
0.00000,0.76714
0.00000,0.11301
0.00000,-0.27948
0.00000,-0.34314
0.05376,-0.21125
0.63050,0.07032
119.746,-0.02582
137.830,-0.16310
140.274,-0.01636
151.026,0.18354
179.863,0.22732
230.694,0.13300
153.470,-0.42850
200.880,0.33255
231.672,0.05446
239.003,-0.17734
221.408,-0.17922
205.767,0.01306
199.902,0.12150
195.503,0.07466
171.554,-0.05103
161.290,0.02382
170.088,0.05370
157.380,-0.10179
149.560,-0.04054
140.762,-0.00282
119.746,-0.01597
107.527,0.05841
106.061,0.06912
103.128,-0.00730
108.016,-0.01573
0.85044,-0.11820
0.72825,0.02334
0.42522,-0.00117
0.16129,0.06014
0.29814,0.16384
0.48876,-0.00669
182.307,0.20326
105.083,-0.81528
192.082,0.32205
276.149,0.18212
221.896,-0.41275
245.846,0.26982
309.873,0.34891
294.233,-0.19877
299.120,-0.02302
260.997,-0.10085
219.941,0.03736
225.806,0.22711
250.244,0.06606
253.177,-0.20338
250.733,-0.17601
248.778,-0.04575
230.694,-0.00518
213.099,0.08356
195.992,0.09739
179.863,0.06004
169.110,0.02352
150.538,-0.05206
150.049,0.01016
164.223,0.00676
162.757,-0.10653
255.132,0.21418
145.161,-0.64753
168.133,0.36731
172.043,0.20718
172.043,0.03068
164.223,-0.06302
165.689,-0.01910
179.374,0.00776
187.195,-0.05521
178.397,-0.08910
167.155,-0.00179
170.088,0.09782
173.021,0.04521
173.509,-0.01372
169.599,-0.03702
164.223,-0.01728
162.268,0.01546
161.290,0.01203
163.245,0.00694
171.065,0.00660
184.262,-0.00383
170.088,-0.10510
164.223,0.02451
167.155,0.07994
170.577,0.03102
260.997,0.23405
137.341,-0.71326
165.200,0.38533
174.976,0.18539
175.953,-0.03109
179.863,-0.06645
185.728,-0.05054
200.391,-0.00459
189.638,-0.08694
188.661,0.03821
145.161,-0.06503
110.948,0.09862
146.139,0.30285
192.571,0.01215
250.733,-0.17030
243.402,-0.39962
159.335,-0.28044
102.151,0.30866
148.094,0.65521
217.498,0.16066
282.991,-0.29206
351.417,-0.34158
388.074,-0.28979
285.924,-0.38941
317.204,0.67583
185.239,-0.05125
228.250,0.67316
247.801,0.02105
235.582,-0.39625
195.015,-0.36625
139.785,-0.11045
102.639,0.16850
0.85533,0.20772
0.68915,0.04614
0.76246,0.01120
110.459,-0.01891
0.10264,-0.50972
0.00978,0.26323
0.21994,0.30368
0.62561,0.07648
107.527,-0.13129
141.251,-0.20758
172.532,-0.09686
192.571,-0.00376
213.587,0.09977
220.430,0.07172
206.256,0.02261
205.767,0.11009
199.413,0.02833
282.502,0.23049
235.093,-0.50037
236.070,-0.01937
338.710,0.37556
421.310,-0.08318
397.361,-0.51563
337.732,-0.13947
286.413,0.31555
250.733,0.39465
201.857,0.12533
143.695,-0.06375
130.987,0.02305
135.386,-0.09266
136.364,-0.21388
151.515,-0.12320
154.936,-0.09468
173.998,0.06579
167.644,0.00719
150.049,0.05472
133.431,0.12149
0.98240,0.04656
0.69892,0.07201
0.46921,0.03468
0.09286,-0.08016
0.00489,0.02396
0.22972,0.03625
175.953,0.25954
100.196,-0.90150
108.016,0.05137
164.223,0.41783
192.571,0.09930
191.593,-0.08160
177.908,-0.02605
186.217,0.13371
191.593,0.04639
181.818,-0.07145
177.908,-0.02804
205.279,0.06853
199.413,-0.14162
162.268,-0.15154
142.717,0.09899
198.925,0.32760
231.183,-0.08492
230.205,-0.26772
214.565,-0.11959
196.481,0.07444
185.728,0.16471
183.284,0.12295
187.195,0.02540
170.088,-0.12351
167.155,-0.02317
173.998,0.01231
162.268,-0.07680
281.525,0.35585
144.184,-0.81614
187.683,0.45632
254.643,0.33739
332.356,-0.02108
446.237,-0.11289
499.022,-0.39335
499.511,-0.25007
500.000,0.17672
408.113,0.05832
313.783,0.30769
199.902,0.24727
115.836,0.21564
0.53763,0.00391
0.21017,-0.15901
0.08309,-0.25719
0.03421,-0.26031
0.13685,-0.12448
0.32258,-0.01173
0.56207,0.06204
0.78201,0.07940
103.617,0.10180
129.032,0.07926
108.993,-0.08325
127.077,0.16435
139.785,0.05708
173.509,0.03094
178.397,-0.16352
107.038,-0.30014
122.678,0.31670
151.515,0.18423
251.711,0.13870
419.355,-0.02611
464.809,-0.70216
382.698,-0.58334
230.694,0.11121
0.26393,0.54958
0.00000,119.022
0.00000,0.30000
0.52786,-0.33554
133.920,-0.63188
193.060,-0.67230
248.778,-0.29517
290.323,0.04487
312.805,0.23686
269.795,0.15792
211.144,0.28946
160.802,0.32684
111.437,0.14028
0.71848,-0.03495
0.80156,-0.04551
101.173,-0.21388
235.582,0.04310
155.914,-0.88928
202.346,0.23890
227.761,0.24308
235.093,0.12273
236.559,0.09385
225.806,0.04579
214.565,0.04603
192.082,-0.01355
142.717,-0.08652
0.92375,0.00429
0.70870,0.12106
0.70381,0.05027
0.74291,-0.09712
0.85044,-0.12663
0.94330,-0.10483
108.016,-0.01767
119.746,0.02581
132.454,0.05897
147.116,0.06412
168.133,0.05675
165.200,-0.06067
155.425,-0.01745
157.380,0.07678
147.116,0.00012
238.514,0.28445
111.437,-0.71875
134.409,0.35633
149.560,0.19248
156.892,-0.04749
168.622,-0.08963
175.953,-0.08659
190.616,-0.00613
198.436,-0.00685
178.886,-0.05311
156.403,0.05347
155.425,0.16179
157.869,0.05992
157.869,-0.05137
159.335,-0.07113
158.358,-0.06143
157.380,-0.02138
162.268,0.02567
163.734,0.00645
171.554,0.02683
183.284,0.01643
170.577,-0.07964
159.335,0.01012
160.313,0.08649
153.470,0.00853
267.840,0.33245
124.633,-0.85551
150.049,0.39555
164.223,0.23677
171.554,-0.01417
176.442,-0.09840
181.818,-0.07226
192.082,-0.01269
194.526,-0.01921
175.464,-0.04376
155.425,0.05031
152.981,0.13253
155.914,0.05268
164.223,-0.02687
168.133,-0.08858
169.599,-0.06890
170.577,-0.01662
170.577,0.01790
173.021,0.03964
171.554,0.01463
181.329,0.04391
187.683,-0.01259
167.644,-0.09965
163.245,0.05178
163.245,0.06003
193.060,0.09206
222.874,-0.05170
132.942,-0.44304
152.004,0.34778
160.313,0.15876
170.088,-0.01621
184.262,-0.07556
178.397,-0.13764
158.847,-0.06546
176.442,0.16524
194.526,0.06166
148.583,-0.21337
0.65005,-0.10246
0.04399,0.22739
0.00000,0.34411
0.00000,0.00594
0.89443,0.04719
295.210,0.03700
367.546,-0.82091
378.299,-0.51034
385.142,0.20643
416.422,0.58306
429.619,0.35441
443.304,0.14244
444.282,-0.06510
497.556,0.03711
500.000,-0.30040
499.511,-0.17951
500.000,-0.01475
500.000,0.05703
500.000,0.06259
500.000,0.03796
500.000,0.01068
500.000,-0.00674
500.000,-0.01275
500.000,-0.01096
500.000,-0.00585
500.000,-0.00084
500.000,0.00241
500.000,0.00364
500.000,0.00336
500.000,0.00230
500.000,0.00115
475.562,-0.06908
500.000,0.16062
500.000,-0.05290
500.000,-0.05750
500.000,-0.01897
500.000,0.00873
500.000,0.01760
500.000,0.01426
500.000,0.00675
500.000,0.00021
500.000,-0.00345
499.022,-0.00711
500.000,0.00297
383.675,-0.33376
354.839,0.35188
273.705,0.06500
132.942,-0.13140
0.85044,0.33040
149.071,0.35633
266.373,-0.13219
378.788,-0.55063
433.040,-0.61514
461.388,-0.15426
480.938,0.28127
458.944,0.31651
405.670,0.27796
347.019,0.24883
268.817,0.06770
193.060,-0.01341
204.790,0.14883
290.811,-0.01278
346.530,-0.50854
320.137,-0.63859
267.351,-0.11839
214.565,0.34300
184.751,0.48895
198.925,0.37240
211.632,-0.03668
226.295,-0.22242
225.318,-0.26104
239.492,-0.06038
233.627,-0.04604
171.554,-0.10246
225.318,0.47561
278.592,0.10880
328.446,-0.16959
364.614,-0.23148
378.788,-0.14760
348.974,-0.06628
250.244,-0.01279
154.448,0.29973
0.76735,0.35197
0.28837,0.18934
0.23460,-0.01232
0.01466,-0.34941
0.00000,-0.25390
0.00978,-0.15169
0.00000,-0.04232
0.00000,0.06336
0.00000,0.10947
0.00000,0.10442
0.88465,0.32110
192.082,-0.00847
214.076,-0.47125
178.397,-0.30679
0.86510,0.01932
0.02933,0.41328
0.73803,0.80762
0.01466,-0.41127
0.14174,-0.09372
0.35679,-0.14934
0.02933,-0.34714
0.00000,0.00838
0.00000,0.09957
0.07820,0.10440
127.566,0.35941
212.610,-0.19677
219.453,-0.47847
215.054,-0.07722
244.868,0.33361
297.654,0.30784
369.501,0.10150
439.394,-0.12833
495.112,-0.21477
497.067,-0.25155
499.022,0.05752
499.511,0.18844
500.000,0.15578
476.540,-0.01167
259.042,-0.55812
0.58651,0.21561
0.00978,0.85106
0.00000,0.29628
0.00000,-0.41744
0.00000,-0.58862
0.00000,-0.37968
0.00000,-0.07961
0.00000,0.13503
0.00000,0.21611
0.00000,0.19265
0.00000,0.11851
0.00000,0.03992
0.00000,-0.01679
0.00000,-0.04432
0.00000,-0.04765
0.00000,-0.03669
0.00000,-0.02097
0.01466,-0.00285
0.50342,0.13525
0.74780,-0.11008
0.59629,-0.20544
109.482,0.20152
0.32747,-0.28535
0.02933,0.20486
0.67937,0.47967
0.73803,-0.17823
0.57185,-0.28751
117.791,0.12957
197.947,0.03399
282.014,-0.11847
442.326,0.08128
431.085,-0.60862
444.282,0.07120
240.958,-0.25554
0.33236,0.49468
0.00000,117.426
0.00000,0.30276
0.00000,-0.51150
0.00000,-0.69776
0.00000,-0.47147
0.00000,-0.14119
0.00000,0.10517
0.00000,0.21190
0.00000,0.20444
0.00000,0.13669
0.00000,0.05735
0.00000,-0.00399
0.00000,-0.03715
0.00000,-0.04522
0.00000,-0.03730
0.00000,-0.02296
0.00000,-0.00913
0.00000,0.00060
0.00000,0.00549
0.01955,0.01204
0.19550,0.04774
0.78201,0.10016
101.662,-0.17933
0.60117,-0.28470
0.14663,0.05930
0.01466,0.32383
111.926,0.51250
134.897,-0.37715
128.543,-0.41564
187.195,0.10651
228.739,0.02008
277.126,0.03085
332.356,0.03861
408.602,0.06966
469.697,-0.06234
499.511,-0.12482
500.000,-0.04622
499.511,0.13247
500.000,0.16147
497.067,0.06883
455.523,-0.12251
391.984,-0.08966
304.497,-0.02428
193.060,0.02136
171.554,0.35891
199.902,0.13353
211.632,-0.32188
261.975,-0.22308
359.726,-0.05328
431.085,-0.18789
471.163,-0.12703
498.045,0.10160
499.511,0.18625
500.000,0.25255
500.000,0.17608
500.000,0.04244
500.000,-0.06572
500.000,-0.11353
500.000,-0.10708
467.253,-0.16347
387.097,-0.13272
196.970,-0.18121
0.22972,0.34721
0.01955,0.81821
0.00000,0.08065
0.00000,-0.45795
0.00978,-0.50308
103.128,0.00962
233.138,-0.03126
343.109,-0.19051
415.445,-0.14641
467.253,0.10345
491.691,0.23348
492.180,0.24909
474.096,0.18557
462.854,0.14311
463.343,0.03016
459.433,-0.14235
445.748,-0.21136
425.709,-0.15124
412.512,-0.02142
325.513,-0.18996
166.667,-0.10804
0.32747,0.34892
0.00000,0.59886
0.05865,0.12051
0.00000,-0.39802
0.00000,-0.40436
0.05865,-0.20351
0.00000,-0.05116
0.00000,0.13222
0.00000,0.17137
0.01466,0.13729
0.00000,0.05969
0.00000,0.01566
0.00000,-0.01974
0.00000,-0.03562
0.00000,-0.03487
0.00000,-0.02494
0.00000,-0.01280
0.00000,-0.00289
146.139,0.41733
479.472,0.40193
500.000,-142.249
500.000,-0.50393
500.000,0.42757
500.000,0.67517
500.000,0.46369
499.511,0.12956
500.000,-0.11425
500.000,-0.22215
500.000,-0.20848
478.495,-0.19479
417.889,-0.14123
497.556,0.50015
439.394,-0.33761
460.899,0.12494
390.518,-0.20367
248.289,-0.15089
190.127,0.48837
294.721,0.71008
339.687,-0.36190
0.44966,-149.485
0.00000,0.70937
0.00000,0.71750
0.00000,0.07108
0.00000,-0.27699
0.00000,-0.28920
0.00000,-0.14604
101.662,0.29086
467.253,0.74401
499.511,-133.606
499.511,-0.55330
499.511,0.40540
500.000,0.68748
500.000,0.48043
500.000,0.13949
500.000,-0.12043
500.000,-0.23180
500.000,-0.22004
500.000,-0.14376
500.000,-0.05629
500.000,0.01020
495.601,0.03252
500.000,0.08110
500.000,0.03257
500.000,0.01498
500.000,0.00621
500.000,0.00035
500.000,-0.00335
500.000,-0.00488
500.000,-0.00462
500.000,-0.00333
500.000,-0.00178
464.809,-0.10019
382.698,-0.10036
319.159,0.18528
374.878,0.50362
421.310,-0.08656
445.748,-0.40203
397.361,-0.46409
278.104,-0.17772
292.766,0.72090
313.294,0.33527
287.879,-0.21765
204.790,-0.35842
115.347,-0.03782
0.98729,0.36654
152.004,0.28689
233.627,-0.10787
416.422,-0.07727
221.408,-145.856
164.223,0.39363
190.616,0.97055
243.402,0.46519
276.637,-0.18166
272.727,-0.43169
248.289,-0.25673
240.958,0.07547
246.823,0.16410
247.801,0.05202
251.222,-0.00291
230.205,-0.10059
236.559,0.06923
267.840,0.09065
270.283,-0.13167
250.244,-0.13475
274.194,0.15470
259.531,-0.04820
209.677,-0.09314
224.829,0.26415
274.194,0.16651
296.188,-0.19855
285.924,-0.27288
284.946,-0.01079
271.750,0.06326
268.328,0.13749
398.827,0.45611
268.328,-0.85616
230.205,0.13021
231.672,0.40470
255.132,0.19020
261.975,-0.15791
273.705,-0.17687
290.811,-0.09594
339.687,0.05681
333.333,-0.16915
280.059,-0.11901
252.199,0.24462
267.351,0.34198
289.834,0.06256
303.030,-0.17656
270.283,-0.30519
247.801,-0.01805
256.598,0.18835
270.772,0.08323
260.997,-0.10468
261.486,-0.01898
227.761,-0.09148
178.397,-0.00297
164.712,0.21049
200.880,0.21549
213.099,-0.16186
341.153,0.13807
113.392,-121.023
0.77713,0.57880
100.684,0.73374
174.976,0.27439
221.408,-0.36760
190.127,-0.61551
179.863,-0.06441
214.565,0.30740
244.379,0.14427
252.199,-0.05200
217.009,-0.14119
187.195,0.07469
201.857,0.25519
244.868,0.11396
285.435,-0.14790
318.182,-0.22413
262.463,-0.36716
219.453,0.11822
233.627,0.44039
263.441,0.19745
319.159,-0.02276
372.434,-0.22177
400.782,-0.27586
438.905,-0.03860
443.793,-0.01885
498.534,0.27224
396.383,-0.32927
380.743,0.36177
353.861,0.21102
340.665,0.05574
341.642,-0.07230
310.850,-0.26503
260.020,-0.18568
244.379,0.12086
205.767,0.01319
144.184,-0.03629
152.004,0.25550
204.301,0.14605
239.003,-0.21818
237.537,-0.32450
220.430,-0.10087
224.340,0.19916
283.480,0.33670
356.794,0.07227
377.322,-0.30010
360.704,-0.23076
310.850,-0.01549
286.901,0.29854
251.711,0.17241
235.582,0.09830
256.109,0.03611
347.019,0.02622
384.164,-0.43043
333.822,-0.50475
364.614,0.30212
377.322,0.22891
369.013,0.06810
305.474,-0.09612
227.273,0.04869
195.015,0.28436
229.717,0.25328
229.228,-0.27736
253.177,-0.22952
292.278,-0.12895
223.363,-0.38579
113.881,-0.02134
0.71359,0.55897
106.061,0.54179
135.875,-0.06768
133.920,-0.42584
0.72825,-0.43275
0.33724,0.06710
0.18573,0.27417
0.43500,0.25157
0.90909,0.02963
137.341,-0.18140
108.993,-0.39739
0.63050,-0.06444
136.364,0.56369
0.35191,-0.34789
111.437,0.50014
180.841,0.04747
222.385,-0.32395
232.160,-0.31695
233.138,-0.04580
252.199,0.20494
224.340,0.02997
217.986,0.16546
218.964,0.10636
221.896,-0.01591
208.700,-0.13485
228.250,0.01523
241.447,-0.06452
255.132,-0.06245
273.705,-0.01140
286.413,-0.00877
302.053,0.03412
334.800,0.08655
383.187,0.05531
409.580,-0.10763
359.238,-0.26688
270.283,-0.02286
172.043,0.24358
135.875,0.45354
153.470,0.22673
206.745,-0.14109
326.002,-0.22670
118.768,-133.976
0.65982,0.43328
0.05865,0.60358
0.00000,0.49873
0.00000,0.03035
0.00000,-0.24514
0.00000,-0.26182
0.00000,-0.14821
0.00000,-0.02221
0.00000,0.05787
0.00000,0.08305
0.00000,0.06967
0.00000,0.03985
0.00000,0.01065
0.00000,-0.00910
0.00000,-0.01771
0.00000,-0.01765
0.00000,-0.01286
0.00000,-0.00683
0.01466,0.00236
0.36657,0.09558
0.97752,0.04138
159.824,-0.10630
203.812,-0.17701
174.976,-0.24747
162.757,0.17898
159.824,0.29052
157.869,0.15680
326.002,0.48368
206.256,-105.734
232.160,0.14603
201.369,0.05198
159.335,0.08242
128.543,0.14948
129.521,0.15525
152.493,0.01079
174.487,-0.16809
172.532,-0.24441
158.847,-0.09976
172.043,0.15424
187.195,0.11710
200.880,0.03046
218.964,0.00290
246.334,0.00516
254.154,-0.08613
229.717,-0.10822
197.458,0.04007
152.981,0.09249
111.437,0.11809
0.91887,0.11492
0.97752,0.03026
111.437,-0.11947
117.302,-0.19946
132.454,-0.08513
114.858,-0.10503
0.92375,0.05461
0.56207,0.10952
0.27859,0.16406
0.73314,0.29502
0.13685,-0.36891
0.78690,0.20827
156.892,-0.00968
188.661,-0.34174
197.947,-0.21062
226.295,0.13076
256.109,0.18326
260.997,0.04610
241.935,-0.00711
222.874,0.07008
218.475,0.11021
211.632,-0.00589
206.256,-0.06863
214.076,-0.04592
217.498,-0.08512
217.009,-0.06572
185.239,-0.09374
172.532,0.11640
175.953,0.14978
197.947,0.07843
231.672,-0.03294
252.688,-0.15198
261.486,-0.11981
253.666,-0.03575
219.941,0.02033
201.369,0.18576
200.391,0.17409
190.616,-0.02107
326.002,0.32566
162.268,-106.097
183.284,0.38401
189.638,0.26890
184.751,0.01613
191.105,-0.02454
210.166,-0.02610
222.385,-0.08513
250.244,-0.00458
256.598,-0.07502
259.042,-0.00114
241.447,0.00860
217.986,0.07202
182.796,0.06167
163.734,0.11051
159.335,0.05338
149.560,-0.08956
170.577,-0.02166
158.847,-0.18931
131.476,-0.10971
133.920,0.14367
140.762,0.10558
169.110,0.07458
238.514,0.06706
288.856,-0.17567
293.744,-0.26639
249.756,-0.12608
219.941,0.24979
214.565,0.33816
192.082,0.05938
326.979,0.38720
156.403,-110.483
158.847,0.28800
154.936,0.25608
147.116,0.03548
150.538,-0.03505
160.313,-0.06635
182.796,-0.03765
234.604,0.03303
262.463,-0.12142
209.677,-0.27012
159.824,0.12591
140.274,0.36208
138.319,0.22246
138.807,-0.03435
133.920,-0.18078
0.88465,-0.26904
0.11241,-0.12654
0.00000,0.31541
0.00978,0.16302
0.15152,-0.02580
0.40078,-0.11875
0.84066,-0.08726
165.200,0.01103
176.931,-0.27334
167.644,-0.06543
166.667,0.21679
165.200,0.22849
195.015,0.20929
197.947,-0.10014
303.519,0.17063
225.806,-0.68697
193.548,0.00785
207.234,0.36252
232.649,0.18119
240.958,-0.10701
226.295,-0.19195
260.508,0.09342
302.542,0.02807
279.570,-0.24849
220.430,-0.11108
197.458,0.27688
196.970,0.26110
198.436,0.02320
188.661,-0.15440
175.464,-0.13706
156.403,-0.06833
124.145,-0.02165
0.94330,0.06879
119.746,0.23170
130.987,-0.05055
189.638,0.01034
283.480,-0.02771
294.233,-0.40532
254.154,-0.21321
229.228,0.26648
219.941,0.37465
191.105,0.11771
181.818,0.05230
169.110,-0.09513
123.656,-0.22862
190.616,0.24298
0.37634,-0.69485
0.74780,0.51253
101.173,0.18335
0.99218,-0.18332
118.280,-0.08128
186.217,0.09230
268.817,-0.01078
267.351,-0.34925
235.093,-0.09365
203.812,0.24044
190.127,0.33819
186.217,0.17098
185.728,-0.03921
155.914,-0.23653
119.257,-0.14473
0.91887,0.01523
104.594,0.15144
0.87977,-0.09920
116.813,0.05770
189.150,0.07883
223.851,-0.22580
205.767,-0.26642
200.880,0.11532
204.790,0.24706
213.099,0.16557
198.436,-0.03801
189.638,-0.01955
188.172,-0.00515
210.655,0.02660
243.891,-0.04424
132.942,-0.51732
141.251,0.38553
150.049,0.23461
178.886,0.04636
190.127,-0.18437
209.189,-0.11676
272.727,0.08073
292.766,-0.15164
237.537,-0.24298
201.369,0.19960
188.172,0.33635
196.481,0.19326
194.037,-0.09930
182.796,-0.19281
164.712,-0.13651
118.280,-0.10538
113.881,0.18206
115.347,0.09802
125.611,-0.00202
159.335,-0.00998
225.318,-0.00075
252.199,-0.22631
244.868,-0.17026
231.672,0.08315
211.144,0.18559
200.880,0.20275
198.925,0.09489
196.481,-0.05017
252.688,0.05627
102.151,-0.73801
0.98240,0.40237
0.84066,0.24170
0.88954,0.06377
138.319,0.01002
255.621,0.00468
299.609,-0.46862
282.991,-0.36548
241.935,0.07666
206.745,0.39599
202.835,0.43352
207.722,0.14017
217.498,-0.11137
212.610,-0.25743
177.419,-0.25344
168.622,0.05092
156.892,0.06674
169.110,0.10882
202.835,0.05523
270.772,0.01912
281.036,-0.29483
243.891,-0.21672
220.919,0.17934
178.886,0.19270
175.464,0.27426
171.065,0.03143
193.548,-0.04717
231.183,-0.13000
136.852,-0.55462
143.206,0.28680
138.807,0.19058
154.936,0.10637
165.200,-0.06500
206.745,-0.00383
252.199,-0.07100
286.901,-0.11882
236.070,-0.27484
177.419,0.09856
151.515,0.38484
134.897,0.22761
0.64516,-0.17255
0.01466,-0.07528
0.00000,0.15365
0.00000,-0.06739
0.00000,-0.18121
0.00000,-0.14232
0.00000,-0.04306
0.09286,0.06672
0.65494,0.20296
114.858,-0.01034
185.728,-0.01809
242.913,-0.10893
289.834,-0.06937
427.664,0.29831
263.441,-0.85347
259.042,0.57114
257.576,0.49147
261.975,0.11979
260.508,-0.17507
262.463,-0.21975
279.570,-0.12349
283.969,-0.12649
250.244,-0.13386
192.571,0.01660
171.065,0.29480
164.223,0.19943
141.740,-0.05918
163.245,0.02262
171.065,-0.15074
177.908,-0.13154
197.947,-0.00678
214.076,0.00411
212.121,-0.02266
217.009,0.07765
204.790,0.02925
176.442,0.00982
140.274,0.03780
140.762,0.16211
146.628,0.00919
151.515,-0.11680
254.643,0.15578
133.431,-0.79227
167.155,0.39231
164.223,0.17773
159.824,0.05630
168.622,0.03905
201.369,0.03506
220.430,-0.11963
194.526,-0.22029
164.712,0.00432
145.161,0.16875
122.678,0.11315
156.892,0.19354
209.189,-0.02712
229.228,-0.30210
239.003,-0.19470
225.806,-0.05437
213.099,0.13651
207.234,0.19328
200.880,0.10165
196.970,0.01321
168.133,-0.12117
138.807,-0.04555
142.229,0.10465
139.785,-0.02568
137.341,-0.07080
135.875,-0.05008
278.104,0.39152
173.021,-0.82011
195.992,0.25325
230.694,0.30796
247.312,0.03296
229.717,-0.13874
207.722,-0.02298
219.941,0.16383
222.874,0.00722
204.790,-0.11806
158.358,-0.12216
140.274,0.12321
143.695,0.13555
124.633,-0.08808
132.942,0.00103
121.701,-0.10470
127.566,0.00772
156.892,0.07226
207.722,0.04066
229.228,-0.15527
240.958,-0.08350
237.537,0.01003
220.430,0.07764
217.009,0.16901
227.761,0.11992
207.722,-0.11628
196.970,-0.04550
184.262,-0.02918
183.284,0.01697
314.761,0.35570
164.223,-0.95488
174.487,0.35803
168.622,0.27900
174.487,0.12156
173.021,-0.06608
199.902,-0.01572
228.739,-0.08320
252.199,-0.10866
238.514,-0.14707
226.295,0.06055
205.279,0.11980
196.970,0.15807
190.616,0.05764
179.374,-0.05117
171.554,-0.05939
163.734,-0.05465
160.802,-0.02076
164.223,0.00237
160.802,-0.03121
152.981,-0.01632
143.695,0.01942
130.499,0.02687
117.791,0.03567
127.077,0.08431
154.448,0.03340
193.548,-0.05043
186.706,-0.24251
181.818,-0.03520
180.352,0.10695
184.262,0.12536
231.183,0.17529
124.145,-0.48395
151.515,0.37789
160.802,0.10063
165.200,-0.09665
171.065,-0.11365
174.976,-0.07499
171.554,-0.03470
156.403,-0.00091
0.86022,-0.08963
0.29326,0.16342
0.38123,0.35333
0.49853,0.01510
0.78690,-0.14966
108.993,-0.21551
164.712,-0.07816
197.947,-0.12301
203.324,-0.06951
202.346,0.10835
203.324,0.19636
202.835,0.13924
187.683,0.00507
194.037,0.04539
193.548,-0.06759
188.661,-0.10037
182.307,-0.06329
187.195,0.01703
193.060,0.00549
175.464,-0.07497
157.380,0.01466
165.689,0.13917
227.273,0.18254
190.127,-0.37331
137.341,-0.14412
143.206,0.30227
139.785,0.11758
137.830,-0.01782
142.717,-0.05412
140.274,-0.09340
129.032,-0.06921
130.987,0.04917
105.083,-0.04201
0.95308,0.08229
107.038,0.11462
122.190,-0.00434
152.493,-0.03600
186.706,-0.07649
197.947,-0.13839
206.745,-0.01422
229.228,0.11720
234.604,0.02948
228.250,0.00342
214.565,0.02072
199.413,0.04089
196.970,0.06415
199.902,0.00033
196.970,-0.08174
191.593,-0.07394
199.413,0.01153
188.661,-0.05520
177.908,0.00711
186.706,0.10051
171.065,-0.04407
307.429,0.42566
142.229,-0.96750
173.998,0.47639
188.172,0.26550
198.436,-0.00514
209.677,-0.10187
218.475,-0.10280
228.250,-0.04340
231.183,-0.01660
207.722,-0.04272
179.863,0.05820
170.577,0.15697
158.847,0.04695
169.599,0.03048
176.442,-0.09202
178.886,-0.11625
181.329,-0.05311
185.728,0.01266
186.217,0.02444
185.728,0.03609
183.773,0.03113
179.863,0.01687
157.380,-0.04300
144.184,0.04314
154.936,0.09777
173.021,-0.00324
231.672,0.02599
269.795,-0.18201
255.132,-0.27166
247.312,0.05640
202.835,0.08362
288.856,0.56025
153.959,-0.58789
124.633,0.22349
141.740,0.31318
155.914,-0.05117
156.403,-0.25689
176.931,-0.11914
188.661,-0.08802
193.548,-0.01765
179.863,0.01551
156.403,0.08264
146.628,0.16545
152.981,0.12283
148.094,-0.05981
162.757,-0.03229
179.374,-0.07273
182.307,-0.11482
178.886,-0.04494
178.397,0.05194
166.178,0.03488
153.959,0.05573
151.026,0.07031
151.026,0.01333
161.779,-0.00900
174.976,-0.05322
202.346,-0.02286
217.986,-0.08214
229.228,-0.03836
232.160,0.00703
219.941,0.02164
205.767,0.07610
177.419,0.03688
297.165,0.46720
142.717,-0.88903
136.852,0.28581
145.650,0.29362
160.313,0.03310
167.155,-0.15774
175.464,-0.13396
190.616,-0.03663
199.902,-0.01073
188.661,-0.02315
166.667,0.04146
159.824,0.14917
165.689,0.11009
167.155,-0.03277
169.599,-0.07490
181.329,-0.03857
163.734,-0.12487
153.959,0.02228
150.049,0.08122
134.409,0.01103
151.026,0.10616
185.728,0.03512
198.436,-0.15801
227.761,-0.04522
232.649,-0.08556
221.408,-0.01801
229.228,0.15333
206.256,0.00978
186.706,0.05246
183.284,0.08707
166.178,-0.05081
286.413,0.33154
163.734,-0.85072
193.548,0.29196
192.082,0.13431
164.223,-0.03362
173.021,0.12581
179.863,0.01188
195.015,-0.03402
206.256,-0.07977
199.413,-0.10058
185.239,-0.01003
192.082,0.13432
188.661,0.03304
181.329,-0.01152
178.886,0.00601
158.847,-0.05835
160.313,0.05968
