CON,ECG,ECG_Filtered,ZERO
-1.00,1.64,-0.08,-0.00
-1.00,1.49,-0.09,-0.00
-1.00,1.67,0.10,0.00
-1.00,1.56,-0.05,-0.00
-1.00,1.72,0.08,0.00
-1.00,1.58,-0.06,-0.00
-1.00,1.68,0.07,0.00
-1.00,1.53,-0.04,-0.00
-1.00,1.72,0.10,0.00
-1.00,1.68,-0.06,-0.00
-1.00,1.90,0.04,0.00
-1.00,1.84,-0.10,-0.00
-1.00,1.98,0.03,0.00
-1.00,1.92,-0.04,-0.00
-1.00,2.12,0.09,0.00
-1.00,2.00,-0.07,-0.00
-1.00,2.13,0.06,0.00
-1.00,1.98,-0.06,-0.00
-1.00,2.11,0.08,0.00
-1.00,1.94,-0.07,-0.00
-1.00,2.03,0.06,0.00
-1.00,1.85,-0.07,-0.00
-1.00,1.92,0.06,0.00
-1.00,1.74,-0.06,-0.00
-1.00,1.83,0.06,0.00
-1.00,1.67,-0.07,-0.00
-1.00,1.78,0.06,0.00
-1.00,1.63,-0.07,-0.00
-1.00,1.72,0.05,0.00
-1.00,1.55,-0.06,-0.00
-1.00,1.66,0.08,0.00
-1.00,1.53,-0.05,-0.00
-1.00,1.70,0.07,0.00
-1.00,1.61,-0.08,-0.00
-1.00,1.77,0.05,0.00
-1.00,1.69,-0.07,-0.00
-1.00,1.85,0.06,0.00
-1.00,1.74,-0.06,-0.00
-1.00,1.89,0.07,0.00
-1.00,1.77,-0.06,-0.00
-1.00,1.90,0.07,0.00
-1.00,1.75,-0.06,-0.00
-1.00,1.88,0.07,0.00
-1.00,1.77,-0.06,-0.00
-1.00,1.91,0.06,0.00
-1.00,1.80,-0.07,-0.00
-1.00,1.93,0.05,0.00
-1.00,1.80,-0.06,-0.00
-1.00,1.95,0.07,0.00
-1.00,1.86,-0.06,-0.00
-1.00,1.99,0.05,0.00
-1.00,1.88,-0.07,-0.00
-1.00,2.04,0.07,0.00
-1.00,1.93,-0.07,-0.00
-1.00,2.04,0.06,0.00
-1.00,1.89,-0.06,-0.00
-1.00,2.01,0.08,0.00
-1.00,1.88,-0.06,-0.00
-1.00,2.00,0.06,0.00
-1.00,1.86,-0.07,-0.00
-1.00,1.99,0.07,0.00
-1.00,1.80,-0.09,-0.00
-1.00,1.86,0.06,0.00
-1.00,1.70,-0.04,-0.00
-1.00,1.82,0.08,0.00
-1.00,1.69,-0.07,-0.00
-1.00,1.82,0.05,0.00
-1.00,1.69,-0.08,-0.00
-1.00,1.82,0.06,0.00
-1.00,1.72,-0.05,-0.00
-1.00,1.88,0.07,0.00
-1.00,1.76,-0.07,-0.00
-1.00,1.89,0.06,0.00
-1.00,1.81,-0.04,-0.00
-1.00,1.93,0.05,0.00
-1.00,1.76,-0.07,-0.00
-1.00,1.87,0.08,0.00
-1.00,1.71,-0.06,-0.00
-1.00,1.80,0.07,0.00
-1.00,1.66,-0.06,-0.00
-1.00,1.78,0.06,0.00
-1.00,1.66,-0.07,-0.00
-1.00,1.80,0.05,0.00
-1.00,1.65,-0.08,-0.00
-1.00,1.83,0.09,0.00
-1.00,2.20,0.07,0.00
-1.00,2.58,-0.06,-0.00
-1.00,2.28,-0.28,-0.02
-1.00,1.77,-0.05,-0.00
-1.00,1.44,0.24,0.01
-1.00,1.64,0.34,0.04
-1.00,1.58,-0.06,-0.00
-1.00,1.73,-0.10,-0.00
-1.00,1.64,-0.20,-0.01
-1.00,1.81,-0.01,-0.00
-1.00,1.73,-0.07,-0.00
-1.00,1.89,0.09,0.00
-1.00,1.80,-0.02,-0.00
-1.00,1.98,0.11,0.00
-1.00,1.88,-0.05,-0.00
-1.00,2.03,0.07,0.00
-1.00,1.94,-0.06,-0.00
-1.00,2.10,0.06,0.00
-1.00,1.99,-0.08,-0.00
-1.00,2.15,0.06,0.00
-1.00,2.06,-0.06,-0.00
-1.00,2.21,0.06,0.00
-1.00,2.10,-0.07,-0.00
-1.00,2.22,0.06,0.00
-1.00,2.07,-0.06,-0.00
-1.00,2.15,0.07,0.00
-1.00,1.96,-0.05,-0.00
-1.00,1.96,0.06,0.00
-1.00,1.74,-0.05,-0.00
-1.00,1.80,0.08,0.00
-1.00,1.64,-0.06,-0.00
-1.00,1.72,0.04,0.00
-1.00,1.56,-0.08,-0.00
-1.00,1.66,0.05,0.00
-1.00,1.52,-0.06,-0.00
-1.00,1.69,0.08,0.00
-1.00,1.61,-0.06,-0.00
-1.00,1.77,0.05,0.00
-1.00,1.62,-0.08,-0.00
-1.00,1.74,0.08,0.00
-1.00,1.64,-0.04,-0.00
-1.00,1.80,0.08,0.00
-1.00,1.69,-0.07,-0.00
-1.00,1.81,0.04,0.00
-1.00,1.69,-0.06,-0.00
-1.00,1.79,0.06,0.00
-1.00,1.67,-0.05,-0.00
-1.00,1.80,0.07,0.00
-1.00,1.71,-0.06,-0.00
-1.00,1.85,0.05,0.00
-1.00,1.74,-0.07,-0.00
-1.00,1.89,0.06,0.00
-1.00,1.79,-0.06,-0.00
-1.00,1.93,0.06,0.00
-1.00,1.79,-0.07,-0.00
-1.00,1.91,0.07,0.00
-1.00,1.79,-0.05,-0.00
-1.00,1.91,0.06,0.00
-1.00,1.76,-0.07,-0.00
-1.00,1.88,0.07,0.00
-1.00,1.76,-0.06,-0.00
-1.00,1.91,0.06,0.00
-1.00,1.79,-0.07,-0.00
-1.00,1.88,0.05,0.00
-1.00,1.74,-0.05,-0.00
-1.00,1.83,0.07,0.00
-1.00,1.69,-0.05,-0.00
-1.00,1.82,0.07,0.00
-1.00,1.69,-0.07,-0.00
-1.00,1.78,0.04,0.00
-1.00,1.68,-0.05,-0.00
-1.00,1.83,0.06,0.00
-1.00,1.74,-0.06,-0.00
-1.00,1.88,0.04,0.00
-1.00,1.77,-0.06,-0.00
-1.00,1.91,0.07,0.00
-1.00,1.78,-0.06,-0.00
-1.00,1.94,0.08,0.00
-1.00,1.86,-0.05,-0.00
-1.00,1.99,0.04,0.00
-1.00,1.84,-0.08,-0.00
-1.00,1.90,0.06,0.00
-1.00,1.71,-0.05,-0.00
-1.00,1.80,0.09,0.00
-1.00,1.66,-0.05,-0.00
-1.00,1.78,0.06,0.00
-1.00,1.67,-0.08,-0.00
-1.00,1.79,0.04,0.00
-1.00,1.66,-0.08,-0.00
-1.00,1.84,0.08,0.00
-1.00,2.23,0.07,0.00
-1.00,2.65,-0.05,-0.00
-1.00,2.32,-0.31,-0.03
-1.00,1.84,-0.03,-0.00
-1.00,1.48,0.23,0.01
-1.00,1.64,0.35,0.04
-1.00,1.56,-0.05,-0.00
-1.00,1.66,-0.10,-0.00
-1.00,1.54,-0.20,-0.01
-1.00,1.64,-0.02,-0.00
-1.00,1.54,-0.06,-0.00
-1.00,1.74,0.11,0.00
-1.00,1.67,-0.04,-0.00
-1.00,1.86,0.08,0.00
-1.00,1.80,-0.05,-0.00
-1.00,1.96,0.06,0.00
-1.00,1.91,-0.04,-0.00
-1.00,2.02,0.04,0.00
-1.00,1.94,-0.05,-0.00
-1.00,2.08,0.07,0.00
-1.00,1.99,-0.06,-0.00
-1.00,2.14,0.05,0.00
-1.00,1.99,-0.08,-0.00
-1.00,2.11,0.07,0.00
-1.00,1.98,-0.05,-0.00
-1.00,2.09,0.06,0.00
-1.00,1.90,-0.07,-0.00
-1.00,1.92,0.05,0.00
-1.00,1.69,-0.05,-0.00
-1.00,1.73,0.08,0.00
-1.00,1.57,-0.04,-0.00
-1.00,1.68,0.05,0.00
-1.00,1.55,-0.09,-0.00
-1.00,1.67,0.04,0.00
-1.00,1.58,-0.06,-0.00
-1.00,1.70,0.05,0.00
-1.00,1.59,-0.05,-0.00
-1.00,1.72,0.07,0.00
-1.00,1.64,-0.04,-0.00
-1.00,1.81,0.07,0.00
-1.00,1.69,-0.08,-0.00
-1.00,1.86,0.07,0.00
-1.00,1.81,-0.05,-0.00
-1.00,1.97,0.04,0.00
-1.00,1.86,-0.08,-0.00
-1.00,1.95,0.06,0.00
-1.00,1.79,-0.05,-0.00
-1.00,1.87,0.08,0.00
-1.00,1.70,-0.05,-0.00
-1.00,1.78,0.06,0.00
-1.00,1.65,-0.06,-0.00
-1.00,1.75,0.04,0.00
-1.00,1.63,-0.07,-0.00
-1.00,1.76,0.06,0.00
-1.00,1.67,-0.06,-0.00
-1.00,1.79,0.05,0.00
-1.00,1.68,-0.06,-0.00
-1.00,1.82,0.08,0.00
-1.00,1.74,-0.05,-0.00
-1.00,1.89,0.06,0.00
-1.00,1.76,-0.08,-0.00
-1.00,1.88,0.06,0.00
-1.00,1.78,-0.04,-0.00
-1.00,1.90,0.06,0.00
-1.00,1.79,-0.06,-0.00
-1.00,1.90,0.05,0.00
-1.00,1.79,-0.06,-0.00
-1.00,1.92,0.06,0.00
-1.00,1.80,-0.07,-0.00
-1.00,1.92,0.05,0.00
-1.00,1.77,-0.06,-0.00
-1.00,1.84,0.06,0.00
-1.00,1.74,-0.03,-0.00
-1.00,1.88,0.07,0.00
-1.00,1.73,-0.09,-0.00
-1.00,1.86,0.06,0.00
-1.00,1.78,-0.05,-0.00
-1.00,1.92,0.05,0.00
-1.00,1.80,-0.07,-0.00
-1.00,1.92,0.06,0.00
-1.00,1.78,-0.06,-0.00
-1.00,1.90,0.07,0.00
-1.00,1.78,-0.05,-0.00
-1.00,1.91,0.06,0.00
-1.00,1.79,-0.07,-0.00
-1.00,1.89,0.04,0.00
-1.00,1.74,-0.07,-0.00
-1.00,2.02,0.13,0.00
-1.00,2.52,0.06,0.00
-1.00,2.68,-0.19,-0.01
-1.00,2.17,-0.28,-0.02
-1.00,1.74,0.11,0.00
-1.00,1.57,0.31,0.03
-1.00,1.76,0.24,0.01
-1.00,1.60,-0.16,-0.00
-1.00,1.64,-0.10,-0.00
-1.00,1.45,-0.16,-0.00
-1.00,1.50,0.03,0.00
-1.00,1.34,-0.04,-0.00
-1.00,1.43,0.09,0.00
-1.00,1.37,-0.01,-0.00
-1.00,1.58,0.07,0.00
-1.00,1.58,-0.07,-0.00
-1.00,1.81,0.03,0.00
-1.00,1.81,-0.07,-0.00
-1.00,2.00,0.05,0.00
-1.00,1.95,-0.05,-0.00
-1.00,2.08,0.07,0.00
-1.00,1.98,-0.03,-0.00
-1.00,2.09,0.07,0.00
-1.00,1.96,-0.06,-0.00
-1.00,2.06,0.06,0.00
-1.00,1.95,-0.06,-0.00
-1.00,2.08,0.05,0.00
-1.00,1.92,-0.09,-0.00
-1.00,1.96,0.04,0.00
-1.00,1.79,-0.04,-0.00
-1.00,1.86,0.08,0.00
-1.00,1.72,-0.04,-0.00
-1.00,1.81,0.05,0.00
-1.00,1.69,-0.07,-0.00
-1.00,1.77,0.04,0.00
-1.00,1.68,-0.05,-0.00
-1.00,1.84,0.06,0.00
-1.00,1.77,-0.06,-0.00
-1.00,1.93,0.05,0.00
-1.00,1.89,-0.05,-0.00
-1.00,2.04,0.05,0.00
-1.00,1.97,-0.05,-0.00
-1.00,2.14,0.07,0.00
-1.00,2.12,-0.04,-0.00
-1.00,2.28,0.04,0.00
-1.00,2.16,-0.08,-0.00
-1.00,2.28,0.06,0.00
-1.00,2.19,-0.03,-0.00
-1.00,2.27,0.05,0.00
-1.00,2.12,-0.06,-0.00
-1.00,2.17,0.05,0.00
-1.00,2.01,-0.05,-0.00
-1.00,2.12,0.07,0.00
-1.00,2.00,-0.07,-0.00
-1.00,2.09,0.03,0.00
-1.00,1.96,-0.07,-0.00
-1.00,2.05,0.06,0.00
-1.00,1.94,-0.05,-0.00
-1.00,2.03,0.06,0.00
-1.00,1.90,-0.05,-0.00
-1.00,1.96,0.05,0.00
-1.00,1.79,-0.05,-0.00
-1.00,1.85,0.06,0.00
-1.00,1.68,-0.05,-0.00
-1.00,1.67,0.04,0.00
-1.00,1.47,-0.04,-0.00
-1.00,1.51,0.07,0.00
-1.00,1.39,-0.04,-0.00
-1.00,1.50,0.04,0.00
-1.00,1.46,-0.06,-0.00
-1.00,1.62,0.02,0.00
-1.00,1.54,-0.08,-0.00
-1.00,1.65,0.05,0.00
-1.00,1.53,-0.04,-0.00
-1.00,1.62,0.08,0.00
-1.00,1.50,-0.03,-0.00
-1.00,1.55,0.05,0.00
-1.00,1.46,-0.03,-0.00
-1.00,1.60,0.05,0.00
-1.00,1.48,-0.09,-0.00
-1.00,1.54,0.02,0.00
-1.00,1.70,0.04,0.00
-1.00,2.35,0.12,0.00
-1.00,2.18,-0.31,-0.03
-1.00,1.78,-0.14,-0.00
-1.00,1.26,0.11,0.00
-1.00,1.36,0.39,0.06
-1.00,1.36,0.07,0.00
-1.00,1.48,-0.07,-0.00
-1.00,1.43,-0.20,-0.01
-1.00,1.61,-0.04,-0.00
-1.00,1.63,-0.08,-0.00
-1.00,1.81,0.05,0.00
-1.00,1.77,-0.03,-0.00
-1.00,1.91,0.09,0.00
-1.00,1.80,-0.02,-0.00
-1.00,1.89,0.08,0.00
-1.00,1.75,-0.04,-0.00
-1.00,1.80,0.05,0.00
-1.00,1.67,-0.05,-0.00
-1.00,1.78,0.05,0.00
-1.00,1.72,-0.06,-0.00
-1.00,1.86,0.02,0.00
-1.00,1.80,-0.07,-0.00
-1.00,1.95,0.05,0.00
-1.00,1.88,-0.05,-0.00
-1.00,1.96,0.05,0.00
-1.00,1.80,-0.04,-0.00
-1.00,1.88,0.09,0.00
-1.00,1.73,-0.04,-0.00
-1.00,1.80,0.06,0.00
-1.00,1.68,-0.05,-0.00
-1.00,1.75,0.03,0.00
-1.00,1.65,-0.06,-0.00
-1.00,1.76,0.05,0.00
-1.00,1.68,-0.06,-0.00
-1.00,1.76,0.04,0.00
-1.00,1.67,-0.04,-0.00
-1.00,1.78,0.06,0.00
-1.00,1.72,-0.04,-0.00
-1.00,1.85,0.05,0.00
-1.00,1.76,-0.06,-0.00
-1.00,1.87,0.05,0.00
-1.00,1.80,-0.04,-0.00
-1.00,1.91,0.05,0.00
-1.00,1.83,-0.05,-0.00
-1.00,1.92,0.04,0.00
-1.00,1.80,-0.05,-0.00
-1.00,1.89,0.06,0.00
-1.00,1.75,-0.05,-0.00
-1.00,1.83,0.05,0.00
-1.00,1.72,-0.04,-0.00
-1.00,1.81,0.05,0.00
-1.00,1.70,-0.06,-0.00
-1.00,1.79,0.05,0.00
-1.00,1.69,-0.05,-0.00
-1.00,1.77,0.04,0.00
-1.00,1.61,-0.06,-0.00
-1.00,1.69,0.07,0.00
-1.00,1.62,-0.02,-0.00
-1.00,1.75,0.05,0.00
-1.00,1.68,-0.07,-0.00
-1.00,1.81,0.03,0.00
-1.00,1.74,-0.05,-0.00
-1.00,1.79,0.03,0.00
-1.00,1.59,-0.05,-0.00
-1.00,1.65,0.10,0.00
-1.00,1.54,-0.01,-0.00
-1.00,1.69,0.06,0.00
-1.00,1.63,-0.08,-0.00
-1.00,1.74,0.01,0.00
-1.00,1.65,-0.07,-0.00
-1.00,1.82,0.07,0.00
-1.00,1.77,-0.04,-0.00
-1.00,1.83,0.03,0.00
-1.00,1.69,-0.04,-0.00
-1.00,1.75,0.08,0.00
-1.00,1.60,-0.03,-0.00
-1.00,1.66,0.06,0.00
-1.00,1.56,-0.05,-0.00
-1.00,1.67,0.03,0.00
-1.00,1.64,-0.05,-0.00
-1.00,1.80,0.03,0.00
-1.00,1.75,-0.08,-0.00
-1.00,1.94,0.06,0.00
-1.00,2.34,0.08,0.00
-1.00,2.84,-0.01,-0.00
-1.00,2.63,-0.28,-0.02
-1.00,2.11,-0.10,-0.00
-1.00,1.66,0.22,0.01
-1.00,1.74,0.38,0.05
-1.00,1.65,0.01,0.00
-1.00,1.73,-0.09,-0.00
-1.00,1.66,-0.20,-0.01
-1.00,1.77,-0.06,-0.00
-1.00,1.72,-0.08,-0.00
-1.00,1.84,0.06,0.00
-1.00,1.76,-0.01,-0.00
-1.00,1.90,0.10,0.00
-1.00,1.76,-0.03,-0.00
-1.00,1.85,0.08,0.00
-1.00,1.75,-0.03,-0.00
-1.00,1.88,0.05,0.00
-1.00,1.83,-0.06,-0.00
-1.00,1.98,0.03,0.00
-1.00,1.96,-0.07,-0.00
-1.00,2.08,0.02,0.00
-1.00,2.02,-0.05,-0.00
-1.00,2.14,0.06,0.00
-1.00,2.02,-0.05,-0.00
-1.00,2.09,0.06,0.00
-1.00,1.97,-0.03,-0.00
-1.00,2.03,0.05,0.00
-1.00,1.84,-0.07,-0.00
-1.00,1.86,0.05,0.00
-1.00,1.70,-0.04,-0.00
-1.00,1.74,0.05,0.00
-1.00,1.64,-0.04,-0.00
-1.00,1.69,0.02,0.00
-1.00,1.54,-0.06,-0.00
-1.00,1.65,0.06,0.00
-1.00,1.60,-0.04,-0.00
-1.00,1.71,0.03,0.00
-1.00,1.63,-0.05,-0.00
-1.00,1.76,0.06,0.00
-1.00,1.73,-0.03,-0.00
-1.00,1.88,0.04,0.00
-1.00,1.84,-0.05,-0.00
-1.00,1.97,0.04,0.00
-1.00,1.91,-0.05,-0.00
-1.00,2.02,0.05,0.00
-1.00,1.93,-0.04,-0.00
-1.00,2.00,0.05,0.00
-1.00,1.89,-0.04,-0.00
-1.00,1.96,0.05,0.00
-1.00,1.85,-0.05,-0.00
-1.00,1.97,0.05,0.00
-1.00,1.89,-0.06,-0.00
-1.00,1.96,0.02,0.00
-1.00,1.83,-0.06,-0.00
-1.00,1.92,0.07,0.00
-1.00,1.80,-0.04,-0.00
-1.00,1.88,0.05,0.00
-1.00,1.77,-0.04,-0.00
-1.00,1.84,0.04,0.00
-1.00,1.73,-0.05,-0.00
-1.00,1.82,0.05,0.00
-1.00,1.72,-0.05,-0.00
-1.00,1.79,0.04,0.00
-1.00,1.66,-0.06,-0.00
-1.00,1.71,0.05,0.00
-1.00,1.65,-0.01,-0.00
-1.00,1.78,0.05,0.00
-1.00,1.74,-0.06,-0.00
-1.00,1.86,0.02,0.00
-1.00,1.79,-0.06,-0.00
-1.00,1.88,0.04,0.00
-1.00,1.78,-0.03,-0.00
-1.00,1.85,0.06,0.00
-1.00,1.73,-0.04,-0.00
-1.00,1.82,0.06,0.00
-1.00,1.74,-0.04,-0.00
-1.00,1.81,0.03,0.00
-1.00,1.68,-0.06,-0.00
-1.00,1.60,0.01,0.00
-1.00,1.41,-0.01,-0.00
-1.00,1.45,0.09,0.00
-1.00,1.35,-0.03,-0.00
-1.00,1.46,0.03,0.00
-1.00,1.40,-0.08,-0.00
-1.00,1.59,0.03,0.00
-1.00,1.50,-0.09,-0.00
-1.00,1.78,0.10,0.00
-1.00,2.26,0.07,0.00
-1.00,2.45,-0.14,-0.00
-1.00,1.98,-0.25,-0.01
-1.00,1.50,0.08,0.00
-1.00,1.31,0.31,0.03
-1.00,1.44,0.23,0.01
-1.00,1.42,-0.10,-0.00
-1.00,1.55,-0.13,-0.00
-1.00,1.54,-0.18,-0.01
-1.00,1.71,-0.02,-0.00
-1.00,1.73,-0.04,-0.00
-1.00,1.92,0.08,0.00
-1.00,1.89,-0.01,-0.00
-1.00,2.00,0.07,0.00
-1.00,1.93,-0.01,-0.00
-1.00,2.05,0.08,0.00
-1.00,1.94,-0.06,-0.00
-1.00,2.05,0.05,0.00
-1.00,2.03,-0.04,-0.00
-1.00,2.16,0.02,0.00
-1.00,2.10,-0.07,-0.00
-1.00,2.19,0.03,0.00
-1.00,2.11,-0.04,-0.00
-1.00,2.19,0.06,0.00
-1.00,2.09,-0.03,-0.00
-1.00,2.13,0.05,0.00
-1.00,1.94,-0.05,-0.00
-1.00,1.89,0.05,0.00
-1.00,1.71,-0.02,-0.00
-1.00,1.70,0.05,0.00
-1.00,1.56,-0.04,-0.00
-1.00,1.63,0.03,0.00
-1.00,1.53,-0.07,-0.00
-1.00,1.62,0.02,0.00
-1.00,1.54,-0.05,-0.00
-1.00,1.64,0.05,0.00
-1.00,1.57,-0.03,-0.00
-1.00,1.67,0.05,0.00
-1.00,1.58,-0.04,-0.00
-1.00,1.75,0.08,0.00
-1.00,1.74,-0.05,-0.00
-1.00,1.88,0.01,0.00
-1.00,1.84,-0.05,-0.00
-1.00,1.96,0.04,0.00
-1.00,1.85,-0.05,-0.00
-1.00,1.89,0.05,0.00
-1.00,1.75,-0.02,-0.00
-1.00,1.83,0.07,0.00
-1.00,1.72,-0.05,-0.00
-1.00,1.83,0.04,0.00
-1.00,1.74,-0.07,-0.00
-1.00,1.82,0.02,0.00
-1.00,1.74,-0.05,-0.00
-1.00,1.83,0.05,0.00
-1.00,1.74,-0.04,-0.00
-1.00,1.83,0.05,0.00
-1.00,1.75,-0.03,-0.00
-1.00,1.85,0.04,0.00
-1.00,1.78,-0.04,-0.00
-1.00,1.88,0.03,0.00
-1.00,1.80,-0.05,-0.00
-1.00,1.88,0.04,0.00
-1.00,1.78,-0.04,-0.00
-1.00,1.84,0.05,0.00
-1.00,1.76,-0.03,-0.00
-1.00,1.86,0.05,0.00
-1.00,1.78,-0.05,-0.00
-1.00,1.87,0.03,0.00
-1.00,1.77,-0.05,-0.00
-1.00,1.82,0.03,0.00
-1.00,1.75,-0.02,-0.00
-1.00,1.85,0.05,0.00
-1.00,1.79,-0.05,-0.00
-1.00,1.90,0.03,0.00
-1.00,1.86,-0.05,-0.00
-1.00,1.97,0.04,0.00
-1.00,1.91,-0.05,-0.00
-1.00,2.00,0.04,0.00
-1.00,1.89,-0.04,-0.00
-1.00,1.96,0.06,0.00
-1.00,1.86,-0.03,-0.00
-1.00,1.91,0.04,0.00
-1.00,1.79,-0.04,-0.00
-1.00,1.81,0.03,0.00
-1.00,1.70,-0.03,-0.00
-1.00,1.75,0.04,0.00
-1.00,1.68,-0.04,-0.00
-1.00,1.77,0.03,0.00
-1.00,1.73,-0.05,-0.00
-1.00,1.86,0.03,0.00
-1.00,1.73,-0.07,-0.00
-1.00,1.87,0.08,0.00
-1.00,2.31,0.11,0.00
-1.00,2.64,-0.08,-0.00
-1.00,2.28,-0.29,-0.03
-1.00,1.74,-0.03,-0.00
-1.00,1.51,0.29,0.02
-1.00,1.68,0.30,0.03
-1.00,1.69,-0.07,-0.00
-1.00,1.72,-0.16,-0.00
-1.00,1.62,-0.17,-0.00
-1.00,1.72,0.01,0.00
-1.00,1.70,-0.02,-0.00
-1.00,1.82,0.06,0.00
-1.00,1.77,-0.02,-0.00
-1.00,1.89,0.07,0.00
-1.00,1.84,-0.03,-0.00
-1.00,1.94,0.05,0.00
-1.00,1.86,-0.04,-0.00
-1.00,1.95,0.04,0.00
-1.00,1.91,-0.03,-0.00
-1.00,2.04,0.04,0.00
-1.00,2.01,-0.06,-0.00
-1.00,2.12,0.02,0.00
-1.00,2.02,-0.05,-0.00
-1.00,2.07,0.05,0.00
-1.00,1.94,-0.02,-0.00
-1.00,1.94,0.05,0.00
-1.00,1.78,-0.03,-0.00
-1.00,1.77,0.04,0.00
-1.00,1.59,-0.04,-0.00
-1.00,1.54,0.03,0.00
-1.00,1.43,-0.02,-0.00
-1.00,1.49,0.04,0.00
-1.00,1.40,-0.06,-0.00
-1.00,1.50,0.02,0.00
-1.00,1.49,-0.04,-0.00
-1.00,1.61,0.03,0.00
-1.00,1.56,-0.05,-0.00
-1.00,1.67,0.05,0.00
-1.00,1.56,-0.04,-0.00
-1.00,1.68,0.08,0.00
-1.00,1.67,-0.01,-0.00
-1.00,1.82,0.03,0.00
-1.00,1.81,-0.06,-0.00
-1.00,1.94,0.01,0.00
-1.00,1.93,-0.04,-0.00
-1.00,2.05,0.04,0.00
-1.00,1.98,-0.04,-0.00
-1.00,2.06,0.05,0.00
-1.00,1.99,-0.02,-0.00
-1.00,2.08,0.05,0.00
-1.00,1.94,-0.06,-0.00
-1.00,1.94,0.04,0.00
-1.00,1.79,-0.03,-0.00
-1.00,1.79,0.04,0.00
-1.00,1.66,-0.03,-0.00
-1.00,1.71,0.04,0.00
-1.00,1.63,-0.05,-0.00
-1.00,1.71,0.02,0.00
-1.00,1.66,-0.05,-0.00
-1.00,1.79,0.04,0.00
-1.00,1.76,-0.04,-0.00
-1.00,1.89,0.04,0.00
-1.00,1.83,-0.04,-0.00
-1.00,1.94,0.05,0.00
-1.00,1.84,-0.04,-0.00
-1.00,1.88,0.05,0.00
-1.00,1.78,-0.02,-0.00
-1.00,1.85,0.05,0.00
-1.00,1.77,-0.04,-0.00
-1.00,1.80,0.01,0.00
-1.00,1.74,-0.03,-0.00
-1.00,1.84,0.04,0.00
-1.00,1.77,-0.05,-0.00
-1.00,1.85,0.03,0.00
-1.00,1.72,-0.05,-0.00
-1.00,1.69,0.03,0.00
-1.00,1.52,-0.00,-0.00
-1.00,1.54,0.07,0.00
-1.00,1.47,-0.02,-0.00
-1.00,1.56,0.02,0.00
-1.00,1.50,-0.07,-0.00
-1.00,1.58,0.01,0.00
-1.00,1.54,-0.04,-0.00
-1.00,1.62,0.03,0.00
-1.00,1.60,-0.01,-0.00
-1.00,1.77,0.06,0.00
-1.00,1.78,-0.05,-0.00
-1.00,1.91,0.02,0.00
-1.00,1.84,-0.05,-0.00
-1.00,1.90,0.04,0.00
-1.00,2.11,0.07,0.00
-1.00,2.72,0.10,0.00
-1.00,2.68,-0.27,-0.02
-1.00,2.27,-0.19,-0.01
-1.00,1.72,0.07,0.00
-1.00,1.71,0.38,0.05
-1.00,1.69,0.12,0.00
-1.00,1.74,-0.06,-0.00
-1.00,1.64,-0.20,-0.01
-1.00,1.67,-0.08,-0.00
-1.00,1.56,-0.07,-0.00
-1.00,1.65,0.07,0.00
-1.00,1.61,0.00,0.00
-1.00,1.73,0.06,0.00
-1.00,1.69,-0.03,-0.00
-1.00,1.80,0.04,0.00
-1.00,1.75,-0.03,-0.00
-1.00,1.87,0.04,0.00
-1.00,1.85,-0.03,-0.00
-1.00,1.99,0.04,0.00
-1.00,1.98,-0.04,-0.00
-1.00,2.11,0.02,0.00
-1.00,2.09,-0.04,-0.00
-1.00,2.19,0.03,0.00
-1.00,2.15,-0.03,-0.00
-1.00,2.22,0.04,0.00
-1.00,2.13,-0.03,-0.00
-1.00,2.12,0.03,0.00
-1.00,1.94,-0.03,-0.00
-1.00,1.88,0.05,0.00
-1.00,1.72,-0.01,-0.00
-1.00,1.71,0.04,0.00
-1.00,1.58,-0.04,-0.00
-1.00,1.60,0.01,0.00
-1.00,1.52,-0.05,-0.00
-1.00,1.57,0.02,0.00
-1.00,1.51,-0.03,-0.00
-1.00,1.58,0.03,0.00
-1.00,1.57,-0.02,-0.00
-1.00,1.69,0.03,0.00
-1.00,1.61,-0.05,-0.00
-1.00,1.70,0.05,0.00
-1.00,1.71,-0.00,-0.00
-1.00,1.83,0.03,0.00
-1.00,1.78,-0.06,-0.00
-1.00,1.86,0.02,0.00
-1.00,1.77,-0.03,-0.00
-1.00,1.83,0.05,0.00
-1.00,1.75,-0.03,-0.00
-1.00,1.81,0.04,0.00
-1.00,1.74,-0.03,-0.00
-1.00,1.80,0.02,0.00
-1.00,1.74,-0.04,-0.00
-1.00,1.80,0.03,0.00
-1.00,1.72,-0.04,-0.00
-1.00,1.79,0.04,0.00
-1.00,1.73,-0.03,-0.00
-1.00,1.81,0.04,0.00
-1.00,1.74,-0.04,-0.00
-1.00,1.82,0.04,0.00
-1.00,1.78,-0.03,-0.00
-1.00,1.87,0.03,0.00
-1.00,1.80,-0.05,-0.00
-1.00,1.87,0.04,0.00
-1.00,1.79,-0.03,-0.00
-1.00,1.85,0.04,0.00
-1.00,1.74,-0.04,-0.00
-1.00,1.79,0.05,0.00
-1.00,1.72,-0.03,-0.00
-1.00,1.81,0.04,0.00
-1.00,1.77,-0.05,-0.00
-1.00,1.76,-0.01,-0.00
-1.00,1.68,-0.02,-0.00
-1.00,1.76,0.06,0.00
-1.00,1.70,-0.03,-0.00
-1.00,1.74,0.02,0.00
-1.00,1.70,-0.03,-0.00
-1.00,1.77,0.03,0.00
-1.00,1.73,-0.04,-0.00
-1.00,1.81,0.03,0.00
-1.00,1.74,-0.04,-0.00
-1.00,1.83,0.04,0.00
-1.00,1.74,-0.04,-0.00
-1.00,1.80,0.04,0.00
-1.00,1.74,-0.02,-0.00
-1.00,1.82,0.04,0.00
-1.00,1.81,-0.03,-0.00
-1.00,1.89,0.01,0.00
-1.00,1.82,-0.05,-0.00
-1.00,1.87,0.03,0.00
-1.00,1.79,-0.02,-0.00
-1.00,1.83,0.05,0.00
-1.00,1.77,-0.02,-0.00
-1.00,1.86,0.03,0.00
-1.00,1.78,-0.05,-0.00
-1.00,1.81,0.01,0.00
-1.00,1.70,-0.04,-0.00
-1.00,2.06,0.15,0.00
-1.00,2.50,0.00,0.00
-1.00,2.60,-0.20,-0.01
-1.00,2.05,-0.25,-0.02
-1.00,1.65,0.15,0.00
-1.00,1.51,0.31,0.03
-1.00,1.57,0.18,0.01
-1.00,1.47,-0.11,-0.00
-1.00,1.52,-0.11,-0.00
-1.00,1.47,-0.14,-0.00
-1.00,1.55,-0.02,-0.00
-1.00,1.53,-0.03,-0.00
-1.00,1.64,0.06,0.00
-1.00,1.63,0.00,0.00
-1.00,1.75,0.06,0.00
-1.00,1.68,-0.03,-0.00
-1.00,1.77,0.05,0.00
-1.00,1.76,-0.01,-0.00
-1.00,1.86,0.03,0.00
-1.00,1.84,-0.04,-0.00
-1.00,1.95,0.02,0.00
-1.00,1.95,-0.04,-0.00
-1.00,2.03,0.02,0.00
-1.00,1.98,-0.04,-0.00
-1.00,2.04,0.04,0.00
-1.00,1.97,-0.02,-0.00
-1.00,2.01,0.03,0.00
-1.00,1.89,-0.03,-0.00
-1.00,1.87,0.03,0.00
-1.00,1.74,-0.02,-0.00
-1.00,1.82,0.06,0.00
-1.00,1.76,-0.04,-0.00
-1.00,1.84,0.00,0.00
-1.00,1.78,-0.05,-0.00
-1.00,1.85,0.03,0.00
-1.00,1.72,-0.04,-0.00
-1.00,1.75,0.06,0.00
-1.00,1.72,0.01,0.00
-1.00,1.81,0.04,0.00
-1.00,1.77,-0.05,-0.00
-1.00,1.84,0.01,0.00
-1.00,1.81,-0.03,-0.00
-1.00,1.90,0.03,0.00
-1.00,1.83,-0.04,-0.00
-1.00,1.89,0.04,0.00
-1.00,1.82,-0.02,-0.00
-1.00,1.87,0.04,0.00
-1.00,1.78,-0.03,-0.00
-1.00,1.80,0.03,0.00
-1.00,1.73,-0.02,-0.00
-1.00,1.81,0.04,0.00
-1.00,1.76,-0.04,-0.00
-1.00,1.84,0.02,0.00
-1.00,1.80,-0.04,-0.00
-1.00,1.89,0.03,0.00
-1.00,1.82,-0.04,-0.00
-1.00,1.87,0.04,0.00
-1.00,1.79,-0.02,-0.00
-1.00,1.84,0.04,0.00
-1.00,1.74,-0.03,-0.00
-1.00,1.78,0.03,0.00
-1.00,1.71,-0.03,-0.00
-1.00,1.76,0.03,0.00
-1.00,1.68,-0.04,-0.00
-1.00,1.73,0.02,0.00
-1.00,1.67,-0.03,-0.00
-1.00,1.69,0.02,0.00
-1.00,1.63,-0.01,-0.00
-1.00,1.75,0.05,0.00
-1.00,1.73,-0.04,-0.00
-1.00,1.82,0.01,0.00
-1.00,1.78,-0.04,-0.00
-1.00,1.85,0.03,0.00
-1.00,1.79,-0.02,-0.00
-1.00,1.86,0.04,0.00
-1.00,1.80,-0.02,-0.00
-1.00,1.88,0.04,0.00
-1.00,1.83,-0.04,-0.00
-1.00,1.84,0.01,0.00
-1.00,1.75,-0.03,-0.00
-1.00,1.80,0.05,0.00
-1.00,1.75,-0.02,-0.00
-1.00,1.85,0.03,0.00
-1.00,1.79,-0.06,-0.00
-1.00,1.87,0.02,0.00
-1.00,1.83,-0.03,-0.00
-1.00,1.87,0.02,0.00
-1.00,1.82,-0.01,-0.00
-1.00,1.92,0.05,0.00
-1.00,1.86,-0.04,-0.00
-1.00,1.84,0.00,0.00
-1.00,1.75,-0.01,-0.00
-1.00,1.80,0.05,0.00
-1.00,1.76,-0.02,-0.00
-1.00,1.82,0.01,0.00
-1.00,1.74,-0.05,-0.00
-1.00,1.76,0.01,0.00
-1.00,1.69,-0.01,-0.00
-1.00,2.25,0.19,0.01
-1.00,2.58,-0.10,-0.00
-1.00,2.50,-0.24,-0.01
-1.00,1.86,-0.17,-0.01
-1.00,1.63,0.29,0.02
-1.00,1.58,0.28,0.02
-1.00,1.65,0.08,0.00
-1.00,1.61,-0.15,-0.00
-1.00,1.70,-0.11,-0.00
-1.00,1.68,-0.12,-0.00
-1.00,1.77,-0.01,-0.00
-1.00,1.74,-0.01,-0.00
-1.00,1.83,0.07,0.00
-1.00,1.81,0.01,0.00
-1.00,1.90,0.05,0.00
-1.00,1.86,-0.02,-0.00
-1.00,1.94,0.03,0.00
-1.00,1.92,-0.03,-0.00
-1.00,2.04,0.03,0.00
-1.00,2.00,-0.06,-0.00
-1.00,2.11,0.03,0.00
-1.00,2.09,-0.03,-0.00
-1.00,2.15,0.02,0.00
-1.00,2.06,-0.03,-0.00
-1.00,2.09,0.05,0.00
-1.00,2.01,-0.01,-0.00
-1.00,2.03,0.03,0.00
-1.00,1.92,-0.04,-0.00
-1.00,1.89,0.02,0.00
-1.00,1.72,-0.03,-0.00
-1.00,1.67,0.04,0.00
-1.00,1.59,0.01,0.00
-1.00,1.67,0.03,0.00
-1.00,1.58,-0.08,-0.00
-1.00,1.62,0.01,0.00
-1.00,1.52,-0.04,-0.00
-1.00,1.56,0.04,0.00
-1.00,1.52,-0.00,-0.00
-1.00,1.57,0.03,0.00
-1.00,1.53,-0.02,-0.00
-1.00,1.62,0.02,0.00
-1.00,1.62,-0.03,-0.00
-1.00,1.72,0.01,0.00
-1.00,1.71,-0.03,-0.00
-1.00,1.82,0.03,0.00
-1.00,1.80,-0.03,-0.00
-1.00,1.88,0.03,0.00
-1.00,1.82,-0.03,-0.00
-1.00,1.85,0.03,0.00
-1.00,1.75,-0.02,-0.00
-1.00,1.74,0.03,0.00
-1.00,1.62,-0.02,-0.00
-1.00,1.65,0.04,0.00
-1.00,1.60,-0.02,-0.00
-1.00,1.67,0.01,0.00
-1.00,1.65,-0.05,-0.00
-1.00,1.74,0.01,0.00
-1.00,1.73,-0.03,-0.00
-1.00,1.83,0.03,0.00
-1.00,1.81,-0.02,-0.00
-1.00,1.82,0.01,0.00
-1.00,1.74,-0.01,-0.00
-1.00,1.80,0.06,0.00
-1.00,1.75,-0.02,-0.00
-1.00,1.81,0.02,0.00
-1.00,1.74,-0.05,-0.00
-1.00,1.80,0.02,0.00
-1.00,1.77,-0.03,-0.00
-1.00,1.84,0.02,0.00
-1.00,1.80,-0.03,-0.00
-1.00,1.88,0.03,0.00
-1.00,1.81,-0.03,-0.00
-1.00,1.85,0.03,0.00
-1.00,1.77,-0.02,-0.00
-1.00,1.82,0.04,0.00
-1.00,1.76,-0.02,-0.00
-1.00,1.81,0.02,0.00
-1.00,1.74,-0.04,-0.00
-1.00,1.77,0.02,0.00
-1.00,1.73,-0.02,-0.00
-1.00,1.78,0.03,0.00
-1.00,1.74,-0.03,-0.00
-1.00,1.80,0.02,0.00
-1.00,1.79,-0.02,-0.00
-1.00,1.86,0.02,0.00
-1.00,1.82,-0.03,-0.00
-1.00,1.93,0.04,0.00
-1.00,1.92,-0.03,-0.00
-1.00,1.96,0.01,0.00
-1.00,1.87,-0.03,-0.00
-1.00,1.91,0.05,0.00
-1.00,1.77,-0.03,-0.00
-1.00,1.81,0.05,0.00
-1.00,1.78,-0.01,-0.00
-1.00,1.87,0.01,0.00
-1.00,1.79,-0.07,-0.00
-1.00,2.11,0.09,0.00
-1.00,2.53,0.02,0.00
-1.00,2.44,-0.22,-0.01
-1.00,1.84,-0.18,-0.01
-1.00,1.49,0.22,0.01
-1.00,1.49,0.32,0.03
-1.00,1.64,0.10,0.00
-1.00,1.61,-0.18,-0.01
-1.00,1.69,-0.14,-0.00
-1.00,1.62,-0.13,-0.00
-1.00,1.68,0.02,0.00
-1.00,1.65,0.02,0.00
-1.00,1.73,0.07,0.00
-1.00,1.71,0.01,0.00
-1.00,1.79,0.04,0.00
-1.00,1.79,-0.02,-0.00
-1.00,1.85,0.01,0.00
-1.00,1.81,-0.03,-0.00
-1.00,1.91,0.04,0.00
-1.00,1.92,-0.02,-0.00
-1.00,2.00,0.01,0.00
-1.00,1.99,-0.03,-0.00
-1.00,2.04,0.01,0.00
-1.00,1.99,-0.02,-0.00
-1.00,2.02,0.04,0.00
-1.00,1.92,-0.02,-0.00
-1.00,1.89,0.03,0.00
-1.00,1.76,-0.01,-0.00
-1.00,1.74,0.03,0.00
-1.00,1.65,-0.02,-0.00
-1.00,1.66,0.01,0.00
-1.00,1.54,-0.05,-0.00
-1.00,1.50,0.01,0.00
-1.00,1.41,-0.00,-0.00
-1.00,1.43,0.04,0.00
-1.00,1.37,-0.02,-0.00
-1.00,1.40,0.02,0.00
-1.00,1.36,-0.03,-0.00
-1.00,1.45,0.03,0.00
-1.00,1.44,-0.03,-0.00
-1.00,1.52,0.02,0.00
-1.00,1.51,-0.02,-0.00
-1.00,1.61,0.03,0.00
-1.00,1.60,-0.02,-0.00
-1.00,1.74,0.04,0.00
-1.00,1.75,-0.03,-0.00
-1.00,1.82,0.00,0.00
-1.00,1.77,-0.03,-0.00
-1.00,1.81,0.04,0.00
-1.00,1.74,-0.02,-0.00
-1.00,1.76,0.04,0.00
-1.00,1.73,-0.01,-0.00
-1.00,1.80,0.02,0.00
-1.00,1.76,-0.05,-0.00
-1.00,1.83,0.01,0.00
-1.00,1.80,-0.03,-0.00
-1.00,1.80,0.01,0.00
-1.00,1.74,-0.00,-0.00
-1.00,1.84,0.06,0.00
-1.00,1.83,-0.03,-0.00
-1.00,1.90,0.00,0.00
-1.00,1.87,-0.04,-0.00
-1.00,1.94,0.03,0.00
-1.00,1.92,-0.02,-0.00
-1.00,1.97,0.02,0.00
-1.00,1.90,-0.03,-0.00
-1.00,1.93,0.03,0.00
-1.00,1.85,-0.02,-0.00
-1.00,1.85,0.03,0.00
-1.00,1.77,-0.02,-0.00
-1.00,1.75,0.01,0.00
-1.00,1.63,-0.03,-0.00
-1.00,1.62,0.03,0.00
-1.00,1.53,-0.02,-0.00
-1.00,1.57,0.03,0.00
-1.00,1.53,-0.03,-0.00
-1.00,1.62,0.01,0.00
-1.00,1.65,-0.03,-0.00
-1.00,1.76,0.01,0.00
-1.00,1.75,-0.04,-0.00
-1.00,1.84,0.03,0.00
-1.00,1.82,-0.01,-0.00
-1.00,1.85,0.03,0.00
-1.00,1.79,-0.01,-0.00
-1.00,1.80,0.03,0.00
-1.00,1.76,-0.00,-0.00
-1.00,1.87,0.03,0.00
-1.00,1.77,-0.08,-0.00
-1.00,1.80,0.02,0.00
-1.00,1.79,0.00,0.00
-1.00,1.90,0.03,0.00
-1.00,1.91,-0.04,-0.00
-1.00,1.91,-0.02,-0.00
-1.00,1.83,-0.02,-0.00
-1.00,1.80,0.04,0.00
-1.00,1.86,0.05,0.00
-1.00,2.42,0.14,0.00
-1.00,2.53,-0.21,-0.01
-1.00,2.27,-0.21,-0.01
-1.00,1.65,-0.06,-0.00
-1.00,1.52,0.33,0.04
-1.00,1.54,0.22,0.01
-1.00,1.61,-0.01,-0.00
-1.00,1.62,-0.16,-0.00
-1.00,1.73,-0.11,-0.00
-1.00,1.71,-0.11,-0.00
-1.00,1.79,0.02,0.00
-1.00,1.79,0.02,0.00
-1.00,1.86,0.07,0.00
-1.00,1.83,0.01,0.00
-1.00,1.89,0.05,0.00
-1.00,1.85,-0.01,-0.00
-1.00,1.90,0.02,0.00
-1.00,1.85,-0.03,-0.00
-1.00,1.94,0.02,0.00
-1.00,1.93,-0.03,-0.00
-1.00,2.01,0.01,0.00
-1.00,1.96,-0.04,-0.00
-1.00,1.95,0.01,0.00
-1.00,1.90,0.02,0.00
-1.00,1.96,0.05,0.00
-1.00,1.92,-0.03,-0.00
-1.00,1.91,-0.01,-0.00
-1.00,1.79,-0.03,-0.00
-1.00,1.78,0.04,0.00
-1.00,1.68,-0.01,-0.00
-1.00,1.68,0.03,0.00
-1.00,1.63,-0.01,-0.00
-1.00,1.69,0.02,0.00
-1.00,1.66,-0.04,-0.00
-1.00,1.71,0.00,0.00
-1.00,1.67,-0.03,-0.00
-1.00,1.68,0.02,0.00
-1.00,1.65,0.00,0.00
-1.00,1.71,0.04,0.00
-1.00,1.69,-0.02,-0.00
-1.00,1.76,0.01,0.00
-1.00,1.78,-0.02,-0.00
-1.00,1.87,0.01,0.00
-1.00,1.82,-0.04,-0.00
-1.00,1.84,0.02,0.00
-1.00,1.76,-0.01,-0.00
-1.00,1.75,0.04,0.00
-1.00,1.68,-0.00,-0.00
-1.00,1.72,0.03,0.00
-1.00,1.66,-0.03,-0.00
-1.00,1.72,0.01,0.00
-1.00,1.70,-0.03,-0.00
-1.00,1.73,0.00,0.00
-1.00,1.68,-0.02,-0.00
-1.00,1.73,0.03,0.00
-1.00,1.71,-0.01,-0.00
-1.00,1.77,0.03,0.00
-1.00,1.74,-0.03,-0.00
-1.00,1.80,0.02,0.00
-1.00,1.76,-0.02,-0.00
-1.00,1.82,0.02,0.00
-1.00,1.79,-0.02,-0.00
-1.00,1.84,0.02,0.00
-1.00,1.78,-0.03,-0.00
-1.00,1.80,0.02,0.00
-1.00,1.74,-0.02,-0.00
-1.00,1.76,0.03,0.00
-1.00,1.74,-0.01,-0.00
-1.00,1.80,0.01,0.00
-1.00,1.74,-0.04,-0.00
-1.00,1.77,0.01,0.00
-1.00,1.71,-0.02,-0.00
-1.00,1.74,0.03,0.00
-1.00,1.72,-0.01,-0.00
-1.00,1.76,0.01,0.00
-1.00,1.71,-0.03,-0.00
-1.00,1.74,0.02,0.00
-1.00,1.71,-0.01,-0.00
-1.00,1.77,0.02,0.00
-1.00,1.75,-0.02,-0.00
-1.00,1.80,0.01,0.00
-1.00,1.76,-0.02,-0.00
-1.00,1.83,0.03,0.00
-1.00,1.75,-0.04,-0.00
-1.00,1.74,0.02,0.00
-1.00,1.75,0.02,0.00
-1.00,1.85,0.03,0.00
-1.00,1.78,-0.07,-0.00
-1.00,1.76,-0.01,-0.00
-1.00,1.71,0.01,0.00
-1.00,1.77,0.05,0.00
-1.00,1.74,-0.02,-0.00
-1.00,1.79,0.01,0.00
-1.00,1.76,-0.03,-0.00
-1.00,1.81,0.01,0.00
-1.00,1.95,0.03,0.00
-1.00,2.55,0.12,0.00
-1.00,2.65,-0.22,-0.01
-1.00,2.35,-0.20,-0.01
-1.00,1.73,-0.01,-0.00
-1.00,1.60,0.36,0.05
-1.00,1.57,0.20,0.01
-1.00,1.60,-0.02,-0.00
-1.00,1.56,-0.17,-0.00
-1.00,1.62,-0.12,-0.00
-1.00,1.61,-0.09,-0.00
-1.00,1.69,0.01,0.00
-1.00,1.70,0.01,0.00
-1.00,1.78,0.05,0.00
-1.00,1.78,0.01,0.00
-1.00,1.83,0.04,0.00
-1.00,1.81,-0.00,-0.00
-1.00,1.88,0.03,0.00
-1.00,1.86,-0.03,-0.00
-1.00,1.89,0.00,0.00
-1.00,1.91,-0.00,-0.00
-1.00,2.04,0.02,0.00
-1.00,2.06,-0.05,-0.00
-1.00,2.13,-0.01,-0.00
-1.00,2.09,-0.02,-0.00
-1.00,2.14,0.04,0.00
-1.00,2.05,-0.01,-0.00
-1.00,2.02,0.03,0.00
-1.00,1.88,-0.01,-0.00
-1.00,1.80,0.03,0.00
-1.00,1.66,-0.01,-0.00
-1.00,1.63,0.03,0.00
-1.00,1.56,-0.02,-0.00
-1.00,1.59,-0.00,-0.00
-1.00,1.59,-0.04,-0.00
-1.00,1.68,0.00,0.00
-1.00,1.69,-0.03,-0.00
-1.00,1.80,0.02,0.00
-1.00,1.78,-0.03,-0.00
-1.00,1.82,0.03,0.00
-1.00,1.79,0.01,0.00
-1.00,1.82,0.03,0.00
-1.00,1.74,-0.02,-0.00
-1.00,1.74,0.02,0.00
-1.00,1.66,-0.02,-0.00
-1.00,1.65,0.01,0.00
-1.00,1.56,-0.03,-0.00
-1.00,1.54,0.01,0.00
-1.00,1.47,-0.02,-0.00
-1.00,1.46,0.02,0.00
-1.00,1.38,-0.02,-0.00
-1.00,1.44,0.03,0.00
-1.00,1.48,-0.01,-0.00
-1.00,1.59,0.00,0.00
-1.00,1.62,-0.04,-0.00
-1.00,1.70,0.00,0.00
-1.00,1.65,-0.02,-0.00
-1.00,1.67,0.04,0.00
-1.00,1.61,0.01,0.00
-1.00,1.64,0.05,0.00
-1.00,1.62,-0.01,-0.00
-1.00,1.70,0.01,0.00
-1.00,1.71,-0.04,-0.00
-1.00,1.75,-0.01,-0.00
-1.00,1.71,-0.03,-0.00
-1.00,1.73,0.03,0.00
-1.00,1.67,-0.00,-0.00
-1.00,1.67,0.03,0.00
-1.00,1.63,0.00,0.00
-1.00,1.66,0.02,0.00
-1.00,1.61,-0.03,-0.00
-1.00,1.64,0.01,0.00
-1.00,1.59,-0.02,-0.00
-1.00,1.65,0.02,0.00
-1.00,1.61,-0.02,-0.00
-1.00,1.65,0.02,0.00
-1.00,1.61,-0.02,-0.00
-1.00,1.70,0.03,0.00
-1.00,1.65,-0.04,-0.00
-1.00,1.71,0.03,0.00
-1.00,1.63,-0.04,-0.00
-1.00,1.63,0.03,0.00
-1.00,1.64,0.02,0.00
-1.00,1.73,0.02,0.00
-1.00,1.73,-0.05,-0.00
-1.00,1.83,0.01,0.00
-1.00,1.83,-0.03,-0.00
-1.00,1.90,0.01,0.00
-1.00,1.84,-0.02,-0.00
-1.00,1.83,0.03,0.00
-1.00,1.77,0.01,0.00
-1.00,1.82,0.04,0.00
-1.00,1.81,-0.02,-0.00
-1.00,1.85,-0.01,-0.00
-1.00,1.80,-0.05,-0.00
-1.00,1.83,0.02,0.00
-1.00,2.19,0.11,0.00
-1.00,2.54,-0.04,-0.00
-1.00,2.28,-0.26,-0.02
-1.00,1.65,-0.11,-0.00
-1.00,1.30,0.26,0.02
-1.00,1.36,0.32,0.03
-1.00,1.36,0.00,0.00
-1.00,1.37,-0.15,-0.00
-1.00,1.34,-0.16,-0.00
-1.00,1.40,-0.06,-0.00
-1.00,1.45,-0.02,-0.00
-1.00,1.56,0.04,0.00
-1.00,1.65,0.02,0.00
-1.00,1.81,0.04,0.00
-1.00,1.88,-0.01,-0.00
-1.00,1.95,0.00,0.00
-1.00,1.93,-0.00,-0.00
-1.00,2.00,0.05,0.00
-1.00,1.99,-0.01,-0.00
-1.00,2.03,0.01,0.00
-1.00,2.00,-0.02,-0.00
-1.00,2.08,0.02,0.00
-1.00,2.07,-0.03,-0.00
-1.00,2.15,0.01,0.00
-1.00,2.15,-0.03,-0.00
-1.00,2.20,0.01,0.00
-1.00,2.12,-0.03,-0.00
-1.00,2.02,0.01,0.00
-1.00,1.81,0.00,0.00
-1.00,1.65,0.05,0.00
-1.00,1.51,0.04,0.00
-1.00,1.44,0.02,0.00
-1.00,1.38,-0.03,-0.00
-1.00,1.40,-0.02,-0.00
-1.00,1.40,-0.05,-0.00
-1.00,1.47,-0.01,-0.00
-1.00,1.47,-0.03,-0.00
-1.00,1.54,0.03,0.00
-1.00,1.58,0.01,0.00
-1.00,1.69,0.03,0.00
-1.00,1.75,-0.01,-0.00
-1.00,1.87,0.01,0.00
-1.00,1.92,-0.02,-0.00
-1.00,2.01,0.01,0.00
-1.00,2.03,-0.01,-0.00
-1.00,2.04,-0.00,-0.00
-1.00,1.93,-0.02,-0.00
-1.00,1.94,0.06,0.00
-1.00,1.89,0.00,0.00
-1.00,1.88,0.00,0.00
-1.00,1.77,-0.04,-0.00
-1.00,1.74,0.01,0.00
-1.00,1.66,-0.02,-0.00
-1.00,1.64,0.02,0.00
-1.00,1.55,-0.02,-0.00
-1.00,1.54,0.02,0.00
-1.00,1.50,-0.01,-0.00
-1.00,1.52,0.01,0.00
-1.00,1.51,-0.02,-0.00
-1.00,1.56,0.01,0.00
-1.00,1.54,-0.03,-0.00
-1.00,1.62,0.02,0.00
-1.00,1.65,-0.01,-0.00
-1.00,1.75,0.02,0.00
-1.00,1.78,-0.02,-0.00
-1.00,1.87,0.01,0.00
-1.00,1.87,-0.02,-0.00
-1.00,1.92,0.02,0.00
-1.00,1.91,-0.00,-0.00
-1.00,1.90,0.01,0.00
-1.00,1.87,0.00,0.00
-1.00,1.89,0.02,0.00
-1.00,1.87,-0.01,-0.00
-1.00,1.90,0.00,0.00
-1.00,1.82,-0.04,-0.00
-1.00,1.86,0.03,0.00
-1.00,1.77,-0.03,-0.00
-1.00,1.76,0.03,0.00
-1.00,1.72,0.00,0.00
-1.00,1.75,0.02,0.00
-1.00,1.72,-0.03,-0.00
-1.00,1.72,-0.00,-0.00
-1.00,1.69,-0.01,-0.00
-1.00,1.73,0.02,0.00
-1.00,1.70,-0.02,-0.00
-1.00,1.72,0.01,0.00
-1.00,1.70,-0.00,-0.00
-1.00,2.11,0.12,0.00
-1.00,2.50,-0.04,-0.00
-1.00,2.39,-0.24,-0.01
-1.00,1.81,-0.16,-0.00
-1.00,1.52,0.24,0.01
-1.00,1.57,0.31,0.03
-1.00,1.70,0.07,0.00
-1.00,1.70,-0.17,-0.00
-1.00,1.74,-0.14,-0.00
-1.00,1.71,-0.10,-0.00
-1.00,1.78,0.02,0.00
-1.00,1.77,0.02,0.00
-1.00,1.82,0.05,0.00
-1.00,1.80,0.02,0.00
-1.00,1.87,0.04,0.00
-1.00,1.81,-0.03,-0.00
-1.00,1.81,0.01,0.00
-1.00,1.75,-0.01,-0.00
-1.00,1.79,0.03,0.00
-1.00,1.79,-0.02,-0.00
-1.00,1.80,-0.01,-0.00
-1.00,1.78,-0.02,-0.00
-1.00,1.88,0.03,0.00
-1.00,1.96,-0.01,-0.00
-1.00,2.02,-0.02,-0.00
-1.00,2.01,-0.03,-0.00
-1.00,2.02,0.02,0.00
-1.00,1.95,0.00,0.00
-1.00,1.93,0.04,0.00
-1.00,1.74,-0.02,-0.00
-1.00,1.68,0.04,0.00
-1.00,1.60,0.01,0.00
-1.00,1.59,0.00,0.00
-1.00,1.53,-0.05,-0.00
-1.00,1.55,-0.01,-0.00
-1.00,1.53,-0.03,-0.00
-1.00,1.57,0.01,0.00
-1.00,1.56,-0.01,-0.00
-1.00,1.63,0.02,0.00
-1.00,1.67,0.00,0.00
-1.00,1.74,0.01,0.00
-1.00,1.73,-0.03,-0.00
-1.00,1.74,0.01,0.00
-1.00,1.71,0.01,0.00
-1.00,1.74,0.03,0.00
-1.00,1.74,-0.00,-0.00
-1.00,1.79,0.00,0.00
-1.00,1.78,-0.03,-0.00
-1.00,1.87,0.01,0.00
-1.00,1.83,-0.04,-0.00
-1.00,1.85,0.01,0.00
-1.00,1.72,-0.03,-0.00
-1.00,1.74,0.06,0.00
-1.00,1.72,0.01,0.00
-1.00,1.76,0.01,0.00
-1.00,1.74,-0.04,-0.00
-1.00,1.78,-0.00,-0.00
-1.00,1.77,-0.02,-0.00
-1.00,1.81,0.01,0.00
-1.00,1.79,-0.01,-0.00
-1.00,1.82,0.02,0.00
-1.00,1.79,-0.01,-0.00
-1.00,1.83,0.02,0.00
-1.00,1.76,-0.03,-0.00
-1.00,1.77,0.02,0.00
-1.00,1.72,-0.01,-0.00
-1.00,1.76,0.02,0.00
-1.00,1.71,-0.03,-0.00
-1.00,1.73,0.01,0.00
-1.00,1.72,-0.01,-0.00
-1.00,1.75,0.01,0.00
-1.00,1.74,-0.01,-0.00
-1.00,1.74,-0.00,-0.00
-1.00,1.74,0.01,0.00
-1.00,1.78,0.02,0.00
-1.00,1.79,-0.01,-0.00
-1.00,1.88,0.01,0.00
-1.00,1.87,-0.03,-0.00
-1.00,1.90,0.00,0.00
-1.00,1.86,-0.01,-0.00
-1.00,1.87,0.02,0.00
-1.00,1.79,-0.01,-0.00
-1.00,1.75,0.02,0.00
-1.00,1.73,0.02,0.00
-1.00,1.79,0.02,0.00
-1.00,1.76,-0.05,-0.00
-1.00,1.76,-0.02,-0.00
-1.00,1.75,-0.01,-0.00
-1.00,2.22,0.14,0.00
-1.00,2.55,-0.08,-0.00
-1.00,2.46,-0.21,-0.01
-1.00,1.88,-0.15,-0.00
-1.00,1.60,0.25,0.02
-1.00,1.60,0.29,0.02
-1.00,1.68,0.07,0.00
-1.00,1.71,-0.14,-0.00
-1.00,1.82,-0.13,-0.00
-1.00,1.84,-0.13,-0.00
-1.00,1.91,-0.01,-0.00
-1.00,1.91,0.01,0.00
-1.00,1.95,0.06,0.00
-1.00,1.90,0.03,0.00
-1.00,1.91,0.06,0.00
-1.00,1.85,0.00,0.00
-1.00,1.83,0.01,0.00
-1.00,1.77,-0.02,-0.00
-1.00,1.79,0.01,0.00
-1.00,1.77,-0.02,-0.00
-1.00,1.83,0.00,0.00
-1.00,1.82,-0.03,-0.00
-1.00,1.85,0.00,0.00
-1.00,1.84,-0.01,-0.00
-1.00,1.81,0.01,0.00
-1.00,1.77,0.01,0.00
-1.00,1.82,0.05,0.00
-1.00,1.78,-0.02,-0.00
-1.00,1.76,-0.01,-0.00
-1.00,1.68,-0.02,-0.00
-1.00,1.64,0.02,0.00
-1.00,1.58,0.00,0.00
-1.00,1.58,0.02,0.00
-1.00,1.52,-0.02,-0.00
-1.00,1.52,-0.00,-0.00
-1.00,1.48,-0.01,-0.00
-1.00,1.52,0.02,0.00
-1.00,1.56,-0.01,-0.00
-1.00,1.63,-0.00,-0.00
-1.00,1.66,-0.02,-0.00
-1.00,1.74,0.01,0.00
-1.00,1.75,-0.01,-0.00
-1.00,1.81,0.02,0.00
-1.00,1.78,-0.01,-0.00
-1.00,1.78,0.02,0.00
-1.00,1.71,-0.01,-0.00
-1.00,1.68,0.03,0.00
-1.00,1.60,-0.01,-0.00
-1.00,1.60,0.02,0.00
-1.00,1.58,-0.02,-0.00
-1.00,1.62,-0.01,-0.00
-1.00,1.64,-0.03,-0.00
-1.00,1.71,-0.00,-0.00
-1.00,1.73,-0.02,-0.00
-1.00,1.77,0.01,0.00
-1.00,1.73,-0.01,-0.00
-1.00,1.74,0.04,0.00
-1.00,1.78,0.03,0.00
-1.00,1.83,0.01,0.00
-1.00,1.81,-0.04,-0.00
-1.00,1.83,-0.00,-0.00
-1.00,1.81,-0.01,-0.00
-1.00,1.83,0.02,0.00
-1.00,1.80,-0.01,-0.00
-1.00,1.76,-0.00,-0.00
-1.00,1.64,-0.02,-0.00
-1.00,1.62,0.04,0.00
-1.00,1.55,0.00,0.00
-1.00,1.57,0.02,0.00
-1.00,1.57,-0.02,-0.00
-1.00,1.63,-0.01,-0.00
-1.00,1.64,-0.03,-0.00
-1.00,1.68,-0.00,-0.00
-1.00,1.65,-0.01,-0.00
-1.00,1.67,0.03,0.00
-1.00,1.64,0.01,0.00
-1.00,1.65,0.02,0.00
-1.00,1.67,0.01,0.00
-1.00,1.73,0.01,0.00
-1.00,1.72,-0.04,-0.00
-1.00,1.74,-0.01,-0.00
-1.00,1.71,-0.02,-0.00
-1.00,1.71,0.02,0.00
-1.00,1.70,0.01,0.00
-1.00,1.74,0.02,0.00
-1.00,1.70,-0.03,-0.00
-1.00,1.71,0.00,0.00
-1.00,1.68,-0.01,-0.00
-1.00,1.66,0.00,0.00
-1.00,1.90,0.08,0.00
-1.00,2.47,0.07,0.00
-1.00,2.49,-0.25,-0.02
-1.00,2.06,-0.21,-0.01
-1.00,1.55,0.09,0.00
-1.00,1.54,0.37,0.05
-1.00,1.58,0.14,0.00
-1.00,1.60,-0.08,-0.00
-1.00,1.62,-0.15,-0.00
-1.00,1.70,-0.10,-0.00
-1.00,1.75,-0.06,-0.00
-1.00,1.78,-0.01,-0.00
-1.00,1.75,0.02,0.00
-1.00,1.76,0.06,0.00
-1.00,1.75,0.04,0.00
-1.00,1.77,0.03,0.00
-1.00,1.76,-0.01,-0.00
-1.00,1.80,-0.00,-0.00
-1.00,1.80,-0.03,-0.00
-1.00,1.89,0.01,0.00
-1.00,1.94,-0.02,-0.00
-1.00,2.03,-0.00,-0.00
-1.00,2.08,-0.02,-0.00
-1.00,2.14,0.00,0.00
-1.00,2.11,-0.01,-0.00
-1.00,2.11,0.03,0.00
-1.00,2.05,0.01,0.00
-1.00,1.96,0.01,0.00
-1.00,1.81,-0.01,-0.00
-1.00,1.74,0.04,0.00
-1.00,1.67,0.00,0.00
-1.00,1.67,0.00,0.00
-1.00,1.65,-0.04,-0.00
-1.00,1.66,-0.02,-0.00
-1.00,1.63,-0.03,-0.00
-1.00,1.62,0.01,0.00
-1.00,1.58,0.01,0.00
-1.00,1.62,0.04,0.00
-1.00,1.65,0.01,0.00
-1.00,1.71,-0.00,-0.00
-1.00,1.74,-0.02,-0.00
-1.00,1.81,0.01,0.00
-1.00,1.85,-0.01,-0.00
-1.00,1.91,0.01,0.00
-1.00,1.91,-0.01,-0.00
-1.00,1.91,0.01,0.00
-1.00,1.84,-0.00,-0.00
-1.00,1.80,0.03,0.00
-1.00,1.75,0.01,0.00
-1.00,1.77,0.02,0.00
-1.00,1.76,-0.02,-0.00
-1.00,1.78,-0.02,-0.00
-1.00,1.75,-0.03,-0.00
-1.00,1.77,0.01,0.00
-1.00,1.75,0.00,0.00
-1.00,1.77,0.02,0.00
-1.00,1.74,-0.00,-0.00
-1.00,1.78,0.02,0.00
-1.00,1.71,-0.03,-0.00
-1.00,1.72,0.02,0.00
-1.00,1.76,0.02,0.00
-1.00,1.83,0.00,0.00
-1.00,1.85,-0.04,-0.00
-1.00,1.88,-0.01,-0.00
-1.00,1.86,-0.01,-0.00
-1.00,1.87,0.03,0.00
-1.00,1.85,0.01,0.00
-1.00,1.83,0.01,0.00
-1.00,1.78,-0.00,-0.00
-1.00,1.79,0.02,0.00
-1.00,1.76,-0.01,-0.00
-1.00,1.77,-0.00,-0.00
-1.00,1.73,-0.02,-0.00
-1.00,1.74,0.01,0.00
-1.00,1.72,-0.00,-0.00
-1.00,1.74,0.01,0.00
-1.00,1.71,-0.01,-0.00
-1.00,1.76,0.02,0.00
-1.00,1.76,-0.02,-0.00
-1.00,1.76,-0.01,-0.00
-1.00,1.73,-0.01,-0.00
-1.00,1.72,0.01,0.00
-1.00,1.67,0.00,0.00
-1.00,1.69,0.03,0.00
-1.00,1.68,-0.01,-0.00
-1.00,1.70,-0.00,-0.00
-1.00,1.70,-0.02,-0.00
-1.00,1.72,-0.00,-0.00
-1.00,1.67,-0.02,-0.00
-1.00,1.73,0.04,0.00
-1.00,2.25,0.14,0.00
-1.00,2.44,-0.15,-0.00
-1.00,2.11,-0.25,-0.02
-1.00,1.57,-0.02,-0.00
-1.00,1.50,0.33,0.04
-1.00,1.62,0.21,0.01
-1.00,1.67,-0.07,-0.00
-1.00,1.71,-0.15,-0.00
-1.00,1.72,-0.12,-0.00
-1.00,1.74,-0.04,-0.00
-1.00,1.77,0.02,0.00
-1.00,1.78,0.03,0.00
-1.00,1.79,0.03,0.00
-1.00,1.83,0.04,0.00
-1.00,1.86,0.01,0.00
-1.00,1.88,-0.01,-0.00
-1.00,1.84,-0.02,-0.00
-1.00,1.85,0.01,0.00
-1.00,1.85,0.00,0.00
-1.00,1.92,0.02,0.00
-1.00,1.96,-0.02,-0.00
-1.00,2.02,-0.02,-0.00
-1.00,2.06,-0.02,-0.00
-1.00,2.12,0.01,0.00
-1.00,2.12,-0.01,-0.00
-1.00,2.13,0.01,0.00
-1.00,2.05,-0.01,-0.00
-1.00,1.93,0.01,0.00
-1.00,1.76,0.01,0.00
-1.00,1.63,0.04,0.00
-1.00,1.50,0.01,0.00
-1.00,1.47,0.02,0.00
-1.00,1.46,-0.03,-0.00
-1.00,1.51,-0.03,-0.00
-1.00,1.52,-0.05,-0.00
-1.00,1.55,-0.02,-0.00
-1.00,1.58,0.01,0.00
-1.00,1.61,0.02,0.00
-1.00,1.63,0.02,0.00
-1.00,1.68,0.03,0.00
-1.00,1.71,0.00,0.00
-1.00,1.76,0.00,0.00
-1.00,1.80,-0.01,-0.00
-1.00,1.86,-0.01,-0.00
-1.00,1.88,-0.02,-0.00
-1.00,1.88,-0.01,-0.00
-1.00,1.81,-0.01,-0.00
-1.00,1.78,0.03,0.00
-1.00,1.72,0.01,0.00
-1.00,1.70,0.02,0.00
-1.00,1.66,-0.01,-0.00
-1.00,1.69,0.00,0.00
-1.00,1.69,-0.02,-0.00
-1.00,1.73,-0.01,-0.00
-1.00,1.74,-0.02,-0.00
-1.00,1.77,0.01,0.00
-1.00,1.76,-0.01,-0.00
-1.00,1.77,0.02,0.00
-1.00,1.75,0.00,0.00
-1.00,1.78,0.03,0.00
-1.00,1.72,-0.03,-0.00
-1.00,1.69,0.01,0.00
-1.00,1.69,0.02,0.00
-1.00,1.73,0.01,0.00
-1.00,1.74,-0.03,-0.00
-1.00,1.73,-0.02,-0.00
-1.00,1.69,-0.01,-0.00
-1.00,1.69,0.02,0.00
-1.00,1.64,0.00,0.00
-1.00,1.62,0.02,0.00
-1.00,1.60,0.01,0.00
-1.00,1.60,0.00,0.00
-1.00,1.63,-0.00,-0.00
-1.00,1.68,-0.01,-0.00
-1.00,1.70,-0.02,-0.00
-1.00,1.76,0.00,0.00
-1.00,1.79,-0.01,-0.00
-1.00,1.84,0.01,0.00
-1.00,1.89,0.01,0.00
-1.00,1.93,0.00,0.00
-1.00,1.90,-0.02,-0.00
-1.00,1.90,0.01,0.00
-1.00,1.86,0.01,0.00
-1.00,1.85,0.02,0.00
-1.00,1.82,-0.00,-0.00
-1.00,1.84,0.00,0.00
-1.00,1.83,-0.02,-0.00
-1.00,1.84,-0.01,-0.00
-1.00,1.80,-0.02,-0.00
-1.00,1.76,0.01,0.00
-1.00,1.91,0.06,0.00
-1.00,2.28,0.06,0.00
-1.00,2.17,-0.20,-0.01
-1.00,1.74,-0.14,-0.00
-1.00,1.29,0.09,0.00
-1.00,1.24,0.29,0.02
-1.00,1.34,0.12,0.00
-1.00,1.43,-0.10,-0.00
-1.00,1.51,-0.16,-0.00
-1.00,1.59,-0.11,-0.00
-1.00,1.69,-0.03,-0.00
-1.00,1.84,0.04,0.00
-1.00,1.97,0.04,0.00
-1.00,2.03,0.01,0.00
-1.00,2.04,0.02,0.00
-1.00,2.07,0.04,0.00
-1.00,2.06,0.02,0.00
-1.00,2.08,0.01,0.00
-1.00,2.10,-0.01,-0.00
-1.00,2.14,-0.02,-0.00
-1.00,2.17,-0.03,-0.00
-1.00,2.19,-0.02,-0.00
-1.00,2.18,-0.01,-0.00
-1.00,2.18,0.01,0.00
-1.00,2.11,-0.01,-0.00
-1.00,2.05,0.02,0.00
-1.00,1.95,0.01,0.00
-1.00,1.85,0.01,0.00
-1.00,1.75,0.01,0.00
-1.00,1.69,0.01,0.00
-1.00,1.64,-0.01,-0.00
-1.00,1.62,-0.01,-0.00
-1.00,1.55,-0.04,-0.00
-1.00,1.59,0.02,0.00
-1.00,1.64,-0.00,-0.00
-1.00,1.67,-0.02,-0.00
-1.00,1.67,-0.01,-0.00
-1.00,1.68,0.01,0.00
-1.00,1.69,0.02,0.00
-1.00,1.70,0.01,0.00
-1.00,1.73,0.01,0.00
-1.00,1.79,0.01,0.00
-1.00,1.81,-0.02,-0.00
-1.00,1.85,-0.01,-0.00
-1.00,1.84,-0.01,-0.00
-1.00,1.81,0.00,0.00
-1.00,1.75,0.01,0.00
-1.00,1.70,0.02,0.00
-1.00,1.64,0.01,0.00
-1.00,1.63,0.02,0.00
-1.00,1.62,-0.01,-0.00
-1.00,1.64,-0.01,-0.00
-1.00,1.67,-0.02,-0.00
-1.00,1.71,-0.01,-0.00
-1.00,1.72,-0.01,-0.00
-1.00,1.76,0.01,0.00
-1.00,1.76,-0.00,-0.00
-1.00,1.79,0.02,0.00
-1.00,1.85,0.02,0.00
-1.00,1.92,0.00,0.00
-1.00,1.98,-0.01,-0.00
-1.00,2.07,-0.01,-0.00
-1.00,2.10,-0.02,-0.00
-1.00,2.07,-0.02,-0.00
-1.00,2.05,0.02,0.00
-1.00,2.01,0.02,0.00
-1.00,1.94,0.01,0.00
-1.00,1.87,0.01,0.00
-1.00,1.82,0.01,0.00
-1.00,1.83,0.01,0.00
-1.00,1.82,-0.02,-0.00
-1.00,1.82,-0.02,-0.00
-1.00,1.78,-0.03,-0.00
-1.00,1.74,0.00,0.00
-1.00,1.68,0.01,0.00
-1.00,1.65,0.03,0.00
-1.00,1.61,0.01,0.00
-1.00,1.58,0.00,0.00
-1.00,1.55,-0.01,-0.00
-1.00,1.57,0.00,0.00
-1.00,1.59,-0.01,-0.00
-1.00,1.69,0.01,0.00
-1.00,1.77,-0.02,-0.00
-1.00,1.83,-0.03,-0.00
-1.00,1.83,-0.02,-0.00
-1.00,1.80,0.01,0.00
-1.00,1.74,0.03,0.00
-1.00,1.71,0.04,0.00
-1.00,1.69,0.02,0.00
-1.00,1.70,-0.00,-0.00
-1.00,1.68,-0.03,-0.00
-1.00,1.68,-0.02,-0.00
-1.00,1.64,-0.02,-0.00
-1.00,1.76,0.04,0.00
-1.00,2.30,0.12,0.00
-1.00,2.44,-0.18,-0.01
-1.00,2.09,-0.23,-0.01
-1.00,1.50,-0.00,-0.00
-1.00,1.40,0.35,0.04
-1.00,1.47,0.22,0.01
-1.00,1.50,-0.06,-0.00
-1.00,1.53,-0.16,-0.00
-1.00,1.57,-0.13,-0.00
-1.00,1.60,-0.06,-0.00
-1.00,1.64,0.01,0.00
-1.00,1.67,0.03,0.00
-1.00,1.72,0.05,0.00
-1.00,1.77,0.03,0.00
-1.00,1.79,0.00,0.00
-1.00,1.81,0.00,0.00
-1.00,1.84,0.00,0.00
-1.00,1.88,0.00,0.00
-1.00,1.92,-0.01,-0.00
-1.00,1.98,-0.01,-0.00
-1.00,2.04,-0.01,-0.00
-1.00,2.09,-0.01,-0.00
-1.00,2.10,-0.01,-0.00
-1.00,2.10,0.00,0.00
-1.00,2.06,0.01,0.00
-1.00,2.00,0.01,0.00
-1.00,1.92,0.01,0.00
-1.00,1.80,0.00,0.00
-1.00,1.71,0.01,0.00
-1.00,1.62,0.00,0.00
-1.00,1.51,-0.02,-0.00
-1.00,1.49,0.01,0.00
-1.00,1.53,0.00,0.00
-1.00,1.56,-0.03,-0.00
-1.00,1.59,-0.03,-0.00
-1.00,1.61,-0.01,-0.00
-1.00,1.62,0.01,0.00
-1.00,1.62,0.02,0.00
-1.00,1.62,0.03,0.00
-1.00,1.64,0.02,0.00
-1.00,1.68,0.01,0.00
-1.00,1.73,-0.01,-0.00
-1.00,1.75,-0.03,-0.00
-1.00,1.80,-0.01,-0.00
-1.00,1.83,-0.00,-0.00
-1.00,1.85,-0.00,-0.00
-1.00,1.83,-0.00,-0.00
-1.00,1.83,0.02,0.00
-1.00,1.85,0.02,0.00
-1.00,1.86,-0.00,-0.00
-1.00,1.84,-0.02,-0.00
-1.00,1.82,-0.00,-0.00
-1.00,1.81,0.00,0.00
-1.00,1.79,-0.00,-0.00
-1.00,1.76,-0.00,-0.00
-1.00,1.74,0.00,0.00
-1.00,1.74,0.01,0.00
-1.00,1.77,0.00,0.00
-1.00,1.79,-0.01,-0.00
-1.00,1.80,-0.01,-0.00
-1.00,1.79,-0.01,-0.00
-1.00,1.71,-0.01,-0.00
-1.00,1.71,0.04,0.00
-1.00,1.71,0.02,0.00
-1.00,1.73,0.00,0.00
-1.00,1.71,-0.03,-0.00
-1.00,1.72,-0.00,-0.00
-1.00,1.74,0.00,0.00
-1.00,1.75,-0.00,-0.00
-1.00,1.79,0.00,0.00
-1.00,1.80,-0.01,-0.00
-1.00,1.81,-0.00,-0.00
-1.00,1.79,-0.00,-0.00
-1.00,1.77,0.01,0.00
-1.00,1.77,0.01,0.00
-1.00,1.75,0.00,0.00
-1.00,1.75,-0.00,-0.00
-1.00,1.76,-0.00,-0.00
-1.00,1.78,-0.01,-0.00
-1.00,1.78,-0.01,-0.00
-1.00,1.81,0.00,0.00
-1.00,1.88,0.01,0.00
-1.00,1.88,-0.02,-0.00
-1.00,1.86,-0.01,-0.00
-1.00,1.84,0.01,0.00
-1.00,1.78,0.01,0.00
-1.00,1.74,0.02,0.00
-1.00,1.72,0.01,0.00
-1.00,1.74,0.01,0.00
-1.00,1.71,-0.03,-0.00
-1.00,1.71,-0.01,-0.00
-1.00,1.65,-0.02,-0.00
-1.00,1.59,0.00,0.00
-1.00,1.95,0.13,0.00
-1.00,2.49,0.03,0.00
-1.00,2.42,-0.29,-0.02
-1.00,1.91,-0.19,-0.01
-1.00,1.56,0.19,0.01
-1.00,1.62,0.34,0.04
-1.00,1.72,0.09,0.00
-1.00,1.76,-0.13,-0.00
-1.00,1.77,-0.16,-0.00
-1.00,1.78,-0.09,-0.00
-1.00,1.79,-0.02,-0.00
-1.00,1.83,0.04,0.00
-1.00,1.85,0.03,0.00
-1.00,1.88,0.03,0.00
-1.00,1.93,0.02,0.00
-1.00,1.93,-0.01,-0.00
-1.00,1.88,-0.02,-0.00
-1.00,1.83,0.01,0.00
-1.00,1.79,0.02,0.00
-1.00,1.78,0.01,0.00
-1.00,1.79,-0.00,-0.00
-1.00,1.82,-0.01,-0.00
-1.00,1.84,-0.03,-0.00
-1.00,1.86,-0.01,-0.00
-1.00,1.91,0.01,0.00
-1.00,1.90,-0.01,-0.00
-1.00,1.90,0.01,0.00
-1.00,1.89,0.01,0.00
-1.00,1.84,0.00,0.00
-1.00,1.76,0.00,0.00
-1.00,1.72,0.02,0.00
-1.00,1.69,0.01,0.00
-1.00,1.62,-0.02,-0.00
-1.00,1.56,-0.01,-0.00
-1.00,1.52,-0.00,-0.00
-1.00,1.50,0.01,0.00
-1.00,1.48,-0.01,-0.00
-1.00,1.49,0.00,0.00
-1.00,1.53,0.00,0.00
-1.00,1.55,-0.01,-0.00
-1.00,1.60,-0.00,-0.00
-1.00,1.67,0.01,0.00
-1.00,1.72,-0.00,-0.00
-1.00,1.76,-0.00,-0.00
-1.00,1.77,-0.00,-0.00
-1.00,1.76,0.01,0.00
-1.00,1.74,0.01,0.00
-1.00,1.72,0.02,0.00
-1.00,1.70,0.00,0.00
-1.00,1.70,0.00,0.00
-1.00,1.71,-0.01,-0.00
-1.00,1.74,-0.01,-0.00
-1.00,1.74,-0.02,-0.00
-1.00,1.74,-0.01,-0.00
-1.00,1.76,0.01,0.00
-1.00,1.76,0.00,0.00
-1.00,1.77,0.01,0.00
-1.00,1.79,0.00,0.00
-1.00,1.79,-0.00,-0.00
-1.00,1.79,-0.00,-0.00
-1.00,1.69,-0.03,-0.00
-1.00,1.69,0.04,0.00
-1.00,1.71,0.02,0.00
-1.00,1.72,-0.01,-0.00
-1.00,1.71,-0.02,-0.00
-1.00,1.70,-0.01,-0.00
-1.00,1.70,0.00,0.00
-1.00,1.73,0.01,0.00
-1.00,1.76,0.00,0.00
-1.00,1.81,-0.00,-0.00
-1.00,1.82,-0.01,-0.00
-1.00,1.83,-0.00,-0.00
-1.00,1.81,0.00,0.00
-1.00,1.80,0.02,0.00
-1.00,1.72,-0.01,-0.00
-1.00,1.67,0.02,0.00
-1.00,1.62,0.01,0.00
-1.00,1.60,0.01,0.00
-1.00,1.58,-0.01,-0.00
-1.00,1.58,-0.02,-0.00
-1.00,1.62,-0.00,-0.00
-1.00,1.69,-0.01,-0.00
-1.00,1.74,-0.02,-0.00
-1.00,1.76,-0.01,-0.00
-1.00,1.76,0.00,0.00
-1.00,1.75,0.02,0.00
-1.00,1.74,0.02,0.00
-1.00,1.78,0.03,0.00
-1.00,1.78,-0.01,-0.00
-1.00,1.77,-0.02,-0.00
-1.00,1.74,-0.02,-0.00
-1.00,1.63,-0.02,-0.00
-1.00,1.75,0.08,0.00
-1.00,2.33,0.13,0.00
-1.00,2.46,-0.21,-0.01
-1.00,2.15,-0.25,-0.01
-1.00,1.53,-0.03,-0.00
-1.00,1.42,0.36,0.05
-1.00,1.52,0.24,0.01
-1.00,1.61,-0.05,-0.00
-1.00,1.65,-0.18,-0.01
-1.00,1.69,-0.14,-0.00
-1.00,1.70,-0.06,-0.00
-1.00,1.75,0.03,0.00
-1.00,1.76,0.04,0.00
-1.00,1.80,0.05,0.00
-1.00,1.81,0.03,0.00
-1.00,1.85,0.02,0.00
-1.00,1.86,-0.01,-0.00
-1.00,1.91,-0.00,-0.00
-1.00,1.94,-0.01,-0.00
-1.00,2.02,0.00,0.00
-1.00,2.05,-0.03,-0.00
-1.00,2.09,-0.01,-0.00
-1.00,2.08,-0.01,-0.00
-1.00,2.08,0.01,0.00
-1.00,2.05,0.01,0.00
-1.00,2.03,0.01,0.00
-1.00,1.98,-0.00,-0.00
-1.00,1.91,-0.01,-0.00
-1.00,1.80,-0.01,-0.00
-1.00,1.69,0.01,0.00
-1.00,1.58,0.01,0.00
-1.00,1.56,0.03,0.00
-1.00,1.55,-0.01,-0.00
-1.00,1.56,-0.02,-0.00
-1.00,1.57,-0.03,-0.00
-1.00,1.62,-0.00,-0.00
-1.00,1.63,-0.01,-0.00
-1.00,1.68,0.02,0.00
-1.00,1.69,0.00,0.00
-1.00,1.74,0.02,0.00
-1.00,1.75,-0.00,-0.00
-1.00,1.79,0.01,0.00
-1.00,1.80,-0.01,-0.00
-1.00,1.84,0.01,0.00
-1.00,1.85,-0.01,-0.00
-1.00,1.88,0.00,0.00
-1.00,1.87,-0.01,-0.00
-1.00,1.86,0.00,0.00
-1.00,1.84,0.00,0.00
-1.00,1.86,0.02,0.00
-1.00,1.81,-0.02,-0.00
-1.00,1.79,0.00,0.00
-1.00,1.77,0.00,0.00
-1.00,1.80,0.02,0.00
-1.00,1.79,-0.02,-0.00
-1.00,1.80,-0.01,-0.00
-1.00,1.78,-0.01,-0.00
-1.00,1.82,0.02,0.00
-1.00,1.81,-0.01,-0.00
-1.00,1.80,0.00,0.00
-1.00,1.75,-0.01,-0.00
-1.00,1.76,0.03,0.00
-1.00,1.79,0.01,0.00
-1.00,1.81,-0.01,-0.00
-1.00,1.77,-0.03,-0.00
-1.00,1.77,0.01,0.00
-1.00,1.73,0.00,0.00
-1.00,1.76,0.03,0.00
-1.00,1.75,-0.01,-0.00
-1.00,1.79,0.01,0.00
-1.00,1.79,-0.02,-0.00
-1.00,1.82,0.00,0.00
-1.00,1.84,-0.00,-0.00
-1.00,1.82,-0.01,-0.00
-1.00,1.80,0.00,0.00
-1.00,1.79,0.02,0.00
-1.00,1.76,0.00,0.00
-1.00,1.75,0.01,0.00
-1.00,1.74,-0.00,-0.00
-1.00,1.77,0.00,0.00
-1.00,1.76,-0.02,-0.00
-1.00,1.78,-0.00,-0.00
-1.00,1.76,-0.01,-0.00
-1.00,1.78,0.01,0.00
-1.00,1.82,0.01,0.00
-1.00,1.83,-0.01,-0.00
-1.00,1.82,-0.01,-0.00
-1.00,1.83,0.01,0.00
-1.00,1.77,-0.01,-0.00
-1.00,1.78,0.03,0.00
-1.00,1.75,-0.00,-0.00
-1.00,1.72,-0.01,-0.00
-1.00,1.70,0.01,0.00
-1.00,1.75,0.02,0.00
-1.00,1.73,-0.03,-0.00
-1.00,1.76,-0.00,-0.00
-1.00,2.14,0.10,0.00
-1.00,2.60,-0.01,-0.00
-1.00,2.49,-0.26,-0.02
-1.00,1.95,-0.15,-0.00
-1.00,1.54,0.20,0.01
-1.00,1.56,0.35,0.04
-1.00,1.58,0.08,0.00
-1.00,1.61,-0.12,-0.00
-1.00,1.61,-0.17,-0.00
-1.00,1.65,-0.09,-0.00
-1.00,1.66,-0.04,-0.00
-1.00,1.71,0.03,0.00
-1.00,1.74,0.04,0.00
-1.00,1.81,0.05,0.00
-1.00,1.79,-0.00,-0.00
-1.00,1.81,0.02,0.00
-1.00,1.81,0.01,0.00
-1.00,1.84,0.01,0.00
-1.00,1.85,-0.02,-0.00
-1.00,1.93,0.01,0.00
-1.00,2.00,-0.02,-0.00
-1.00,2.12,-0.01,-0.00
-1.00,2.14,-0.04,-0.00
-1.00,2.17,0.00,0.00
-1.00,2.13,0.00,0.00
-1.00,2.09,0.03,0.00
-1.00,1.98,0.01,0.00
-1.00,1.91,0.03,0.00
-1.00,1.77,-0.01,-0.00
-1.00,1.71,0.01,0.00
-1.00,1.63,-0.01,-0.00
-1.00,1.61,-0.01,-0.00
-1.00,1.56,-0.03,-0.00
-1.00,1.56,-0.01,-0.00
-1.00,1.53,-0.01,-0.00
-1.00,1.55,0.02,0.00
-1.00,1.53,-0.01,-0.00
-1.00,1.57,0.02,0.00
-1.00,1.56,-0.01,-0.00
-1.00,1.62,0.02,0.00
-1.00,1.65,-0.01,-0.00
-1.00,1.75,0.01,0.00
-1.00,1.75,-0.03,-0.00
-1.00,1.78,0.00,0.00
-1.00,1.76,-0.00,-0.00
-1.00,1.76,0.02,0.00
-1.00,1.76,0.02,0.00
-1.00,1.74,-0.00,-0.00
-1.00,1.72,-0.01,-0.00
-1.00,1.72,0.01,0.00
-1.00,1.74,0.00,0.00
-1.00,1.79,-0.00,-0.00
-1.00,1.78,-0.03,-0.00
-1.00,1.79,-0.00,-0.00
-1.00,1.79,0.00,0.00
-1.00,1.80,0.02,0.00
-1.00,1.71,-0.02,-0.00
-1.00,1.70,0.03,0.00
-1.00,1.69,0.02,0.00
-1.00,1.72,0.01,0.00
-1.00,1.68,-0.04,-0.00
-1.00,1.66,-0.01,-0.00
-1.00,1.64,0.00,0.00
-1.00,1.66,0.02,0.00
-1.00,1.63,-0.01,-0.00
-1.00,1.66,0.01,0.00
-1.00,1.65,-0.01,-0.00
-1.00,1.69,0.01,0.00
-1.00,1.68,-0.01,-0.00
-1.00,1.75,0.02,0.00
-1.00,1.75,-0.02,-0.00
-1.00,1.80,0.01,0.00
-1.00,1.79,-0.02,-0.00
-1.00,1.82,0.01,0.00
-1.00,1.80,-0.01,-0.00
-1.00,1.83,0.02,0.00
-1.00,1.81,-0.01,-0.00
-1.00,1.85,0.01,0.00
-1.00,1.85,-0.02,-0.00
-1.00,1.91,0.01,0.00
-1.00,1.92,-0.02,-0.00
-1.00,1.96,-0.00,-0.00
-1.00,1.91,-0.02,-0.00
-1.00,1.90,0.02,0.00
-1.00,1.89,0.02,0.00
-1.00,1.89,0.01,0.00
-1.00,1.79,-0.03,-0.00
-1.00,1.69,0.00,0.00
-1.00,1.61,0.02,0.00
-1.00,1.60,0.03,0.00
-1.00,1.54,-0.02,-0.00
-1.00,1.56,0.00,0.00
-1.00,1.57,-0.02,-0.00
-1.00,1.65,0.00,0.00
-1.00,1.62,-0.05,-0.00
-1.00,1.63,0.01,0.00
-1.00,1.98,0.12,0.00
-1.00,2.50,0.04,0.00
-1.00,2.41,-0.26,-0.02
-1.00,1.96,-0.15,-0.00
-1.00,1.61,0.17,0.01
-1.00,1.73,0.34,0.04
-1.00,1.80,0.06,0.00
-1.00,1.87,-0.12,-0.00
-1.00,1.86,-0.16,-0.00
-1.00,1.92,-0.07,-0.00
-1.00,1.91,-0.03,-0.00
-1.00,1.93,0.04,0.00
-1.00,1.91,0.03,0.00
-1.00,1.93,0.05,0.00
-1.00,1.91,0.01,0.00
-1.00,1.93,0.02,0.00
-1.00,1.89,-0.02,-0.00
-1.00,1.93,0.01,0.00
-1.00,1.92,-0.02,-0.00
-1.00,1.99,0.01,0.00
-1.00,1.99,-0.03,-0.00
-1.00,2.03,0.00,0.00
-1.00,1.96,-0.03,-0.00
-1.00,2.00,0.04,0.00
-1.00,1.99,0.01,0.00
-1.00,2.03,0.01,0.00
-1.00,2.00,-0.02,-0.00
-1.00,1.98,-0.01,-0.00
-1.00,1.86,-0.02,-0.00
-1.00,1.80,0.03,0.00
-1.00,1.73,0.02,0.00
-1.00,1.70,0.02,0.00
-1.00,1.65,-0.02,-0.00
-1.00,1.65,-0.01,-0.00
-1.00,1.59,-0.03,-0.00
-1.00,1.60,0.01,0.00
-1.00,1.58,-0.01,-0.00
-1.00,1.61,0.01,0.00
-1.00,1.63,0.00,0.00
-1.00,1.67,0.00,0.00
-1.00,1.69,-0.01,-0.00
-1.00,1.77,0.01,0.00
-1.00,1.78,-0.02,-0.00
-1.00,1.85,0.01,0.00
-1.00,1.84,-0.01,-0.00
-1.00,1.85,0.01,0.00
-1.00,1.79,-0.00,-0.00
-1.00,1.80,0.03,0.00
-1.00,1.78,0.00,0.00
-1.00,1.78,-0.01,-0.00
-1.00,1.75,-0.02,-0.00
-1.00,1.80,0.01,0.00
-1.00,1.73,-0.04,-0.00
-1.00,1.71,0.01,0.00
-1.00,1.70,0.02,0.00
-1.00,1.76,0.03,0.00
-1.00,1.74,-0.03,-0.00
-1.00,1.77,0.00,0.00
-1.00,1.74,-0.02,-0.00
-1.00,1.78,0.03,0.00
-1.00,1.75,-0.01,-0.00
-1.00,1.79,0.02,0.00
-1.00,1.80,-0.01,-0.00
-1.00,1.80,-0.01,-0.00
-1.00,1.78,-0.01,-0.00
-1.00,1.81,0.02,0.00
-1.00,1.76,-0.02,-0.00
-1.00,1.78,0.02,0.00
-1.00,1.74,-0.02,-0.00
-1.00,1.78,0.03,0.00
-1.00,1.76,-0.02,-0.00
-1.00,1.78,-0.00,-0.00
-1.00,1.77,-0.01,-0.00
-1.00,1.81,0.01,0.00
-1.00,1.76,-0.02,-0.00
-1.00,1.76,0.01,0.00
-1.00,1.75,0.01,0.00
-1.00,1.78,0.02,0.00
-1.00,1.76,-0.02,-0.00
-1.00,1.83,0.02,0.00
-1.00,1.80,-0.03,-0.00
-1.00,1.81,0.00,0.00
-1.00,1.76,-0.01,-0.00
-1.00,1.69,0.00,0.00
-1.00,1.59,0.01,0.00
-1.00,1.63,0.06,0.00
-1.00,1.63,-0.01,-0.00
-1.00,1.65,-0.03,-0.00
-1.00,1.64,-0.03,-0.00
-1.00,1.67,-0.00,-0.00
-1.00,1.64,-0.01,-0.00
-1.00,2.09,0.14,0.00
-1.00,2.48,-0.04,-0.00
-1.00,2.40,-0.23,-0.01
-1.00,1.83,-0.16,-0.00
-1.00,1.53,0.23,0.01
-1.00,1.57,0.31,0.03
-1.00,1.70,0.08,0.00
-1.00,1.70,-0.16,-0.00
-1.00,1.74,-0.15,-0.00
-1.00,1.71,-0.10,-0.00
-1.00,1.75,0.01,0.00
-1.00,1.74,0.02,0.00
-1.00,1.77,0.05,0.00
-1.00,1.75,0.02,0.00
-1.00,1.82,0.04,0.00
-1.00,1.82,-0.01,-0.00
-1.00,1.86,-0.01,-0.00
-1.00,1.84,-0.02,-0.00
-1.00,1.90,0.02,0.00
-1.00,1.94,-0.01,-0.00
-1.00,2.02,0.01,0.00
-1.00,2.01,-0.04,-0.00
-1.00,2.03,0.00,0.00
-1.00,1.96,-0.01,-0.00
-1.00,1.96,0.04,0.00
-1.00,1.93,0.01,0.00
-1.00,1.90,-0.00,-0.00
-1.00,1.75,-0.04,-0.00
-1.00,1.68,0.02,0.00
-1.00,1.59,0.01,0.00
-1.00,1.58,0.02,0.00
-1.00,1.55,-0.02,-0.00
-1.00,1.61,-0.00,-0.00
-1.00,1.59,-0.04,-0.00
-1.00,1.64,-0.00,-0.00
-1.00,1.61,-0.01,-0.00
-1.00,1.67,0.03,0.00
-1.00,1.64,-0.00,-0.00
-1.00,1.71,0.03,0.00
-1.00,1.72,-0.01,-0.00
-1.00,1.80,0.01,0.00
-1.00,1.79,-0.03,-0.00
-1.00,1.89,0.02,0.00
-1.00,1.86,-0.03,-0.00
-1.00,1.91,0.02,0.00
-1.00,1.84,-0.02,-0.00
-1.00,1.83,0.03,0.00
-1.00,1.77,0.00,0.00
-1.00,1.78,0.02,0.00
-1.00,1.70,-0.03,-0.00
-1.00,1.70,0.01,0.00
-1.00,1.69,-0.01,-0.00
-1.00,1.72,-0.00,-0.00
-1.00,1.64,-0.04,-0.00
-1.00,1.61,0.01,0.00
-1.00,1.59,0.02,0.00
-1.00,1.68,0.04,0.00
-1.00,1.71,-0.03,-0.00
-1.00,1.78,-0.01,-0.00
-1.00,1.79,-0.03,-0.00
-1.00,1.84,0.01,0.00
-1.00,1.83,-0.00,-0.00
-1.00,1.86,0.03,0.00
-1.00,1.80,-0.01,-0.00
-1.00,1.79,0.02,0.00
-1.00,1.71,-0.01,-0.00
-1.00,1.70,0.03,0.00
-1.00,1.66,-0.01,-0.00
-1.00,1.73,0.02,0.00
-1.00,1.73,-0.04,-0.00
-1.00,1.79,-0.01,-0.00
-1.00,1.77,-0.03,-0.00
-1.00,1.81,0.02,0.00
-1.00,1.75,-0.01,-0.00
-1.00,1.78,0.04,0.00
-1.00,1.72,-0.01,-0.00
-1.00,1.73,0.03,0.00
-1.00,1.66,-0.02,-0.00
-1.00,1.69,0.02,0.00
-1.00,1.69,-0.01,-0.00
-1.00,1.78,0.01,0.00
-1.00,1.80,-0.04,-0.00
-1.00,1.86,-0.00,-0.00
-1.00,1.79,-0.04,-0.00
-1.00,1.74,0.02,0.00
-1.00,1.67,0.03,0.00
-1.00,1.78,0.08,0.00
-1.00,1.78,-0.04,-0.00
-1.00,1.83,-0.02,-0.00
-1.00,1.81,-0.05,-0.00
-1.00,1.79,-0.00,-0.00
-1.00,1.92,0.06,0.00
-1.00,2.52,0.14,0.00
-1.00,2.57,-0.22,-0.01
-1.00,2.20,-0.21,-0.01
-1.00,1.58,0.01,0.00
-1.00,1.50,0.37,0.05
-1.00,1.51,0.18,0.01
-1.00,1.56,-0.05,-0.00
-1.00,1.54,-0.18,-0.01
-1.00,1.63,-0.11,-0.00
-1.00,1.59,-0.10,-0.00
-1.00,1.65,0.02,0.00
-1.00,1.65,0.03,0.00
-1.00,1.74,0.07,0.00
-1.00,1.76,0.02,0.00
-1.00,1.82,0.02,0.00
-1.00,1.80,-0.02,-0.00
-1.00,1.88,0.03,0.00
-1.00,1.89,-0.02,-0.00
-1.00,2.00,0.02,0.00
-1.00,2.04,-0.03,-0.00
-1.00,2.15,0.00,0.00
-1.00,2.15,-0.04,-0.00
-1.00,2.19,0.01,0.00
-1.00,2.07,-0.03,-0.00
-1.00,2.07,0.06,0.00
-1.00,2.00,0.01,0.00
-1.00,1.96,0.01,0.00
-1.00,1.80,-0.04,-0.00
-1.00,1.73,0.02,0.00
-1.00,1.61,-0.00,-0.00
-1.00,1.62,0.03,0.00
-1.00,1.56,-0.03,-0.00
-1.00,1.59,-0.00,-0.00
-1.00,1.57,-0.03,-0.00
-1.00,1.62,0.01,0.00
-1.00,1.60,-0.02,-0.00
-1.00,1.64,0.02,0.00
-1.00,1.60,-0.01,-0.00
-1.00,1.63,0.03,0.00
-1.00,1.63,0.00,0.00
-1.00,1.73,0.02,0.00
-1.00,1.76,-0.03,-0.00
-1.00,1.80,-0.02,-0.00
-1.00,1.76,-0.03,-0.00
-1.00,1.81,0.03,0.00
-1.00,1.76,-0.01,-0.00
-1.00,1.82,0.04,0.00
-1.00,1.74,-0.03,-0.00
-1.00,1.76,0.02,0.00
-1.00,1.73,-0.01,-0.00
-1.00,1.79,0.02,0.00
-1.00,1.75,-0.04,-0.00
-1.00,1.78,0.01,0.00
-1.00,1.70,-0.03,-0.00
-1.00,1.65,0.02,0.00
-1.00,1.57,0.02,0.00
-1.00,1.61,0.05,0.00
-1.00,1.56,-0.03,-0.00
-1.00,1.63,0.01,0.00
-1.00,1.61,-0.04,-0.00
-1.00,1.68,0.01,0.00
-1.00,1.67,-0.02,-0.00
-1.00,1.71,0.01,0.00
-1.00,1.66,-0.01,-0.00
-1.00,1.67,0.03,0.00
-1.00,1.59,-0.01,-0.00
-1.00,1.60,0.04,0.00
-1.00,1.54,-0.02,-0.00
-1.00,1.61,0.03,0.00
-1.00,1.61,-0.03,-0.00
-1.00,1.73,0.01,0.00
-1.00,1.73,-0.05,-0.00
-1.00,1.83,0.02,0.00
-1.00,1.83,-0.02,-0.00
-1.00,1.91,0.03,0.00
-1.00,1.89,-0.01,-0.00
-1.00,1.91,0.02,0.00
-1.00,1.83,-0.01,-0.00
-1.00,1.85,0.04,0.00
-1.00,1.77,-0.02,-0.00
-1.00,1.70,-0.00,-0.00
-1.00,1.56,-0.02,-0.00
-1.00,1.50,0.03,0.00
-1.00,1.42,-0.00,-0.00
-1.00,1.41,0.01,0.00
-1.00,1.35,-0.03,-0.00
-1.00,1.46,0.03,0.00
-1.00,1.52,-0.03,-0.00
-1.00,1.64,-0.01,-0.00
-1.00,1.68,-0.04,-0.00
-1.00,2.15,0.13,0.00
-1.00,2.52,-0.04,-0.00
-1.00,2.46,-0.19,-0.01
-1.00,1.84,-0.16,-0.00
-1.00,1.53,0.26,0.02
-1.00,1.53,0.31,0.03
-1.00,1.67,0.08,0.00
-1.00,1.65,-0.18,-0.01
-1.00,1.71,-0.15,-0.00
-1.00,1.71,-0.11,-0.00
-1.00,1.82,0.01,0.00
-1.00,1.82,-0.00,-0.00
-1.00,1.89,0.06,0.00
-1.00,1.87,0.02,0.00
-1.00,1.92,0.05,0.00
-1.00,1.85,-0.01,-0.00
-1.00,1.85,0.02,0.00
-1.00,1.79,-0.01,-0.00
-1.00,1.85,0.03,0.00
-1.00,1.85,-0.03,-0.00
-1.00,1.97,0.00,0.00
-1.00,1.99,-0.05,-0.00
-1.00,2.06,-0.00,-0.00
-1.00,2.02,-0.02,-0.00
-1.00,2.06,0.04,0.00
-1.00,1.93,-0.02,-0.00
-1.00,1.90,0.05,0.00
-1.00,1.80,0.01,0.00
-1.00,1.77,0.02,0.00
-1.00,1.64,-0.04,-0.00
-1.00,1.63,0.02,0.00
-1.00,1.57,-0.02,-0.00
-1.00,1.59,0.01,0.00
-1.00,1.54,-0.03,-0.00
-1.00,1.58,0.02,0.00
-1.00,1.55,-0.02,-0.00
-1.00,1.60,0.02,0.00
-1.00,1.55,-0.02,-0.00
-1.00,1.63,0.04,0.00
-1.00,1.63,-0.01,-0.00
-1.00,1.72,0.01,0.00
-1.00,1.70,-0.03,-0.00
-1.00,1.78,0.02,0.00
-1.00,1.74,-0.03,-0.00
-1.00,1.78,0.02,0.00
-1.00,1.71,-0.02,-0.00
-1.00,1.73,0.03,0.00
-1.00,1.71,-0.00,-0.00
-1.00,1.78,0.02,0.00
-1.00,1.77,-0.04,-0.00
-1.00,1.81,-0.00,-0.00
-1.00,1.76,-0.03,-0.00
-1.00,1.83,0.04,0.00
-1.00,1.74,-0.03,-0.00
-1.00,1.76,0.03,0.00
-1.00,1.67,-0.01,-0.00
-1.00,1.64,0.02,0.00
-1.00,1.61,0.01,0.00
-1.00,1.71,0.03,0.00
-1.00,1.70,-0.06,-0.00
-1.00,1.74,-0.02,-0.00
-1.00,1.71,-0.03,-0.00
-1.00,1.74,0.03,0.00
-1.00,1.71,-0.00,-0.00
-1.00,1.75,0.03,0.00
-1.00,1.73,-0.01,-0.00
-1.00,1.79,0.02,0.00
-1.00,1.75,-0.03,-0.00
-1.00,1.83,0.02,0.00
-1.00,1.81,-0.03,-0.00
-1.00,1.84,0.01,0.00
-1.00,1.78,-0.02,-0.00
-1.00,1.78,0.02,0.00
-1.00,1.72,-0.00,-0.00
-1.00,1.77,0.04,0.00
-1.00,1.74,-0.03,-0.00
-1.00,1.75,-0.00,-0.00
-1.00,1.69,-0.03,-0.00
-1.00,1.72,0.03,0.00
-1.00,1.65,-0.02,-0.00
-1.00,1.69,0.03,0.00
-1.00,1.66,-0.02,-0.00
-1.00,1.73,0.02,0.00
-1.00,1.69,-0.04,-0.00
-1.00,1.76,0.02,0.00
-1.00,1.70,-0.03,-0.00
-1.00,1.89,0.07,0.00
-1.00,2.35,0.08,0.00
-1.00,2.44,-0.17,-0.01
-1.00,1.99,-0.22,-0.01
-1.00,1.49,0.07,0.00
-1.00,1.34,0.31,0.03
-1.00,1.48,0.21,0.01
-1.00,1.49,-0.10,-0.00
-1.00,1.57,-0.15,-0.00
-1.00,1.54,-0.15,-0.00
-1.00,1.61,-0.02,-0.00
-1.00,1.58,-0.00,-0.00
-1.00,1.69,0.08,0.00
-1.00,1.68,0.01,0.00
-1.00,1.78,0.05,0.00
-1.00,1.77,-0.02,-0.00
-1.00,1.82,0.01,0.00
-1.00,1.76,-0.03,-0.00
-1.00,1.77,0.03,0.00
-1.00,1.72,-0.01,-0.00
-1.00,1.80,0.04,0.00
-1.00,1.79,-0.04,-0.00
-1.00,1.91,0.01,0.00
-1.00,1.92,-0.05,-0.00
-1.00,2.00,0.00,0.00
-1.00,1.99,-0.02,-0.00
-1.00,2.04,0.03,0.00
-1.00,1.94,-0.02,-0.00
-1.00,1.89,0.04,0.00
-1.00,1.74,-0.00,-0.00
-1.00,1.71,0.05,0.00
-1.00,1.65,-0.00,-0.00
-1.00,1.72,0.01,0.00
-1.00,1.71,-0.06,-0.00
-1.00,1.82,-0.00,-0.00
-1.00,1.85,-0.04,-0.00
-1.00,1.95,0.01,0.00
-1.00,1.91,-0.03,-0.00
-1.00,1.96,0.05,0.00
-1.00,1.90,-0.00,-0.00
-1.00,1.91,0.04,0.00
-1.00,1.84,-0.01,-0.00
-1.00,1.89,0.03,0.00
-1.00,1.83,-0.04,-0.00
-1.00,1.86,0.00,0.00
-1.00,1.79,-0.04,-0.00
-1.00,1.78,0.01,0.00
-1.00,1.70,-0.01,-0.00
-1.00,1.71,0.04,0.00
-1.00,1.61,-0.02,-0.00
-1.00,1.64,0.03,0.00
-1.00,1.53,-0.04,-0.00
-1.00,1.58,0.04,0.00
-1.00,1.54,-0.03,-0.00
-1.00,1.60,0.02,0.00
-1.00,1.59,-0.03,-0.00
-1.00,1.68,0.02,0.00
-1.00,1.67,-0.03,-0.00
-1.00,1.74,0.02,0.00
-1.00,1.73,-0.02,-0.00
-1.00,1.76,0.02,0.00
-1.00,1.67,-0.02,-0.00
-1.00,1.62,0.02,0.00
-1.00,1.55,0.02,0.00
-1.00,1.63,0.05,0.00
-1.00,1.64,-0.03,-0.00
-1.00,1.74,-0.02,-0.00
-1.00,1.74,-0.05,-0.00
-1.00,1.85,0.01,0.00
-1.00,1.84,-0.03,-0.00
-1.00,1.89,0.03,0.00
-1.00,1.84,-0.00,-0.00
-1.00,1.88,0.04,0.00
-1.00,1.80,-0.01,-0.00
-1.00,1.86,0.04,0.00
-1.00,1.77,-0.04,-0.00
-1.00,1.80,0.02,0.00
-1.00,1.72,-0.03,-0.00
-1.00,1.72,0.01,0.00
-1.00,1.64,-0.02,-0.00
-1.00,1.68,0.03,0.00
-1.00,1.55,-0.05,-0.00
-1.00,1.60,0.04,0.00
-1.00,1.57,-0.01,-0.00
-1.00,1.63,0.01,0.00
-1.00,1.65,-0.02,-0.00
-1.00,2.20,0.14,0.00
-1.00,2.51,-0.12,-0.00
-1.00,2.42,-0.22,-0.01
-1.00,1.79,-0.14,-0.00
-1.00,1.60,0.31,0.03
-1.00,1.62,0.29,0.02
-1.00,1.72,0.05,0.00
-1.00,1.63,-0.19,-0.01
-1.00,1.67,-0.11,-0.00
-1.00,1.68,-0.07,-0.00
-1.00,1.76,-0.00,-0.00
-1.00,1.74,-0.02,-0.00
-1.00,1.81,0.05,0.00
-1.00,1.76,0.01,0.00
-1.00,1.83,0.06,0.00
-1.00,1.78,-0.01,-0.00
-1.00,1.82,0.03,0.00
-1.00,1.78,-0.02,-0.00
-1.00,1.86,0.03,0.00
-1.00,1.87,-0.03,-0.00
-1.00,1.99,0.01,0.00
-1.00,1.99,-0.05,-0.00
-1.00,2.10,0.02,0.00
-1.00,2.04,-0.04,-0.00
-1.00,2.10,0.05,0.00
-1.00,2.02,-0.01,-0.00
-1.00,2.02,0.03,0.00
-1.00,1.87,-0.03,-0.00
-1.00,1.85,0.04,0.00
-1.00,1.71,-0.02,-0.00
-1.00,1.69,0.03,0.00
-1.00,1.60,-0.03,-0.00
-1.00,1.63,0.01,0.00
-1.00,1.55,-0.05,-0.00
-1.00,1.58,0.02,0.00
-1.00,1.54,-0.01,-0.00
-1.00,1.64,0.04,0.00
-1.00,1.56,-0.05,-0.00
-1.00,1.57,0.02,0.00
-1.00,1.51,0.00,0.00
-1.00,1.61,0.06,0.00
-1.00,1.58,-0.03,-0.00
-1.00,1.64,0.00,0.00
-1.00,1.55,-0.05,-0.00
-1.00,1.59,0.04,0.00
-1.00,1.54,-0.01,-0.00
-1.00,1.57,0.03,0.00
-1.00,1.49,-0.03,-0.00
-1.00,1.55,0.03,0.00
-1.00,1.51,-0.03,-0.00
-1.00,1.59,0.02,0.00
-1.00,1.56,-0.04,-0.00
-1.00,1.63,0.02,0.00
-1.00,1.61,-0.02,-0.00
-1.00,1.70,0.03,0.00
-1.00,1.67,-0.03,-0.00
-1.00,1.77,0.03,0.00
-1.00,1.79,-0.02,-0.00
-1.00,1.88,0.01,0.00
-1.00,1.84,-0.04,-0.00
-1.00,1.91,0.03,0.00
-1.00,1.83,-0.03,-0.00
-1.00,1.86,0.04,0.00
-1.00,1.75,-0.02,-0.00
-1.00,1.78,0.04,0.00
-1.00,1.67,-0.03,-0.00
-1.00,1.70,0.03,0.00
-1.00,1.64,-0.03,-0.00
-1.00,1.70,0.02,0.00
-1.00,1.67,-0.04,-0.00
-1.00,1.74,0.02,0.00
-1.00,1.72,-0.03,-0.00
-1.00,1.78,0.02,0.00
-1.00,1.71,-0.03,-0.00
-1.00,1.76,0.05,0.00
-1.00,1.69,-0.02,-0.00
-1.00,1.74,0.04,0.00
-1.00,1.71,-0.02,-0.00
-1.00,1.76,0.01,0.00
-1.00,1.68,-0.04,-0.00
-1.00,1.72,0.03,0.00
-1.00,1.66,-0.02,-0.00
-1.00,1.74,0.04,0.00
-1.00,1.71,-0.03,-0.00
-1.00,1.78,0.02,0.00
-1.00,1.77,-0.03,-0.00
-1.00,1.85,0.02,0.00
-1.00,1.80,-0.03,-0.00
-1.00,1.84,0.03,0.00
-1.00,2.15,0.09,0.00
-1.00,2.68,0.04,0.00
-1.00,2.56,-0.28,-0.02
-1.00,2.05,-0.16,-0.00
-1.00,1.61,0.17,0.00
-1.00,1.71,0.37,0.05
-1.00,1.70,0.05,0.00
-1.00,1.78,-0.10,-0.00
-1.00,1.74,-0.19,-0.01
-1.00,1.80,-0.07,-0.00
-1.00,1.67,-0.07,-0.00
-1.00,1.74,0.09,0.00
-1.00,1.74,0.04,0.00
-1.00,1.85,0.06,0.00
-1.00,1.84,-0.03,-0.00
-1.00,1.92,0.02,0.00
-1.00,1.88,-0.03,-0.00
-1.00,1.94,0.03,0.00
-1.00,1.90,-0.01,-0.00
-1.00,1.98,0.04,0.00
-1.00,1.97,-0.03,-0.00
-1.00,2.03,0.01,0.00
-1.00,1.99,-0.03,-0.00
-1.00,2.05,0.03,0.00
-1.00,2.00,-0.02,-0.00
-1.00,2.06,0.03,0.00
-1.00,1.96,-0.04,-0.00
-1.00,1.95,0.03,0.00
-1.00,1.81,-0.02,-0.00
-1.00,1.77,0.04,0.00
-1.00,1.65,-0.01,-0.00
-1.00,1.68,0.04,0.00
-1.00,1.60,-0.04,-0.00
-1.00,1.63,0.01,0.00
-1.00,1.55,-0.04,-0.00
-1.00,1.60,0.03,0.00
-1.00,1.58,-0.02,-0.00
-1.00,1.67,0.03,0.00
-1.00,1.65,-0.03,-0.00
-1.00,1.74,0.03,0.00
-1.00,1.70,-0.03,-0.00
-1.00,1.74,0.03,0.00
-1.00,1.73,0.00,0.00
-1.00,1.81,0.03,0.00
-1.00,1.75,-0.04,-0.00
-1.00,1.76,0.01,0.00
-1.00,1.64,-0.03,-0.00
-1.00,1.64,0.05,0.00
-1.00,1.52,-0.02,-0.00
-1.00,1.52,0.04,0.00
-1.00,1.45,-0.03,-0.00
-1.00,1.53,0.03,0.00
-1.00,1.52,-0.04,-0.00
-1.00,1.64,0.01,0.00
-1.00,1.58,-0.06,-0.00
-1.00,1.62,0.02,0.00
-1.00,1.59,0.01,0.00
-1.00,1.69,0.06,0.00
-1.00,1.68,-0.02,-0.00
-1.00,1.77,0.01,0.00
-1.00,1.72,-0.05,-0.00
-1.00,1.79,0.03,0.00
-1.00,1.73,-0.02,-0.00
-1.00,1.80,0.04,0.00
-1.00,1.78,-0.02,-0.00
-1.00,1.87,0.02,0.00
-1.00,1.82,-0.05,-0.00
-1.00,1.80,0.00,0.00
-1.00,1.68,-0.01,-0.00
-1.00,1.69,0.06,0.00
-1.00,1.63,-0.00,-0.00
-1.00,1.65,0.01,0.00
-1.00,1.57,-0.04,-0.00
-1.00,1.72,0.05,0.00
-1.00,1.76,-0.04,-0.00
-1.00,1.88,-0.02,-0.00
-1.00,1.88,-0.04,-0.00
-1.00,1.99,0.04,0.00
-1.00,2.00,-0.01,-0.00
-1.00,2.05,0.02,0.00
-1.00,1.95,-0.03,-0.00
-1.00,1.95,0.05,0.00
-1.00,1.84,-0.00,-0.00
-1.00,1.84,0.03,0.00
-1.00,1.73,-0.04,-0.00
-1.00,1.73,0.02,0.00
-1.00,1.61,-0.05,-0.00
-1.00,1.64,0.03,0.00
-1.00,1.55,-0.03,-0.00
-1.00,1.64,0.04,0.00
-1.00,2.03,0.08,0.00
-1.00,2.52,-0.02,-0.00
-1.00,2.33,-0.30,-0.03
-1.00,1.85,-0.10,-0.00
-1.00,1.55,0.23,0.01
-1.00,1.72,0.35,0.04
-1.00,1.76,0.01,0.00
-1.00,1.89,-0.11,-0.00
-1.00,1.86,-0.18,-0.01
-1.00,1.93,-0.06,-0.00
-1.00,1.88,-0.03,-0.00
-1.00,1.94,0.07,0.00
-1.00,1.79,-0.01,-0.00
-1.00,1.80,0.09,0.00
-1.00,1.73,0.01,0.00
-1.00,1.72,0.02,0.00
-1.00,1.60,-0.04,-0.00
-1.00,1.65,0.03,0.00
-1.00,1.61,-0.03,-0.00
-1.00,1.72,0.01,0.00
-1.00,1.77,-0.03,-0.00
-1.00,1.90,-0.00,-0.00
-1.00,1.97,-0.03,-0.00
-1.00,2.15,0.03,0.00
-1.00,2.16,-0.04,-0.00
-1.00,2.26,0.04,0.00
-1.00,2.19,-0.02,-0.00
-1.00,2.14,0.03,0.00
-1.00,1.94,-0.00,-0.00
-1.00,1.85,0.06,0.00
-1.00,1.65,-0.01,-0.00
-1.00,1.59,0.03,0.00
-1.00,1.42,-0.05,-0.00
-1.00,1.39,0.00,0.00
-1.00,1.30,-0.04,-0.00
-1.00,1.36,0.02,0.00
-1.00,1.31,-0.05,-0.00
-1.00,1.41,0.03,0.00
-1.00,1.44,-0.02,-0.00
-1.00,1.62,0.04,0.00
-1.00,1.67,-0.04,-0.00
-1.00,1.83,0.02,0.00
-1.00,1.84,-0.03,-0.00
-1.00,1.89,0.02,0.00
-1.00,1.85,0.00,0.00
-1.00,1.95,0.06,0.00
-1.00,1.88,-0.04,-0.00
-1.00,1.88,0.01,0.00
-1.00,1.74,-0.04,-0.00
-1.00,1.71,0.04,0.00
-1.00,1.60,-0.01,-0.00
-1.00,1.59,0.03,0.00
-1.00,1.48,-0.04,-0.00
-1.00,1.51,0.02,0.00
-1.00,1.46,-0.03,-0.00
-1.00,1.58,0.03,0.00
-1.00,1.59,-0.04,-0.00
-1.00,1.72,0.01,0.00
-1.00,1.73,-0.04,-0.00
-1.00,1.85,0.03,0.00
-1.00,1.86,-0.01,-0.00
-1.00,1.96,0.04,0.00
-1.00,1.92,-0.02,-0.00
-1.00,1.95,0.03,0.00
-1.00,1.90,-0.00,-0.00
-1.00,1.88,0.01,0.00
-1.00,1.77,-0.02,-0.00
-1.00,1.76,0.03,0.00
-1.00,1.65,-0.03,-0.00
-1.00,1.65,0.02,0.00
-1.00,1.53,-0.04,-0.00
-1.00,1.57,0.03,0.00
-1.00,1.51,-0.04,-0.00
-1.00,1.55,0.02,0.00
-1.00,1.51,-0.03,-0.00
-1.00,1.56,0.03,0.00
-1.00,1.54,-0.02,-0.00
-1.00,1.65,0.04,0.00
-1.00,1.63,-0.04,-0.00
-1.00,1.74,0.03,0.00
-1.00,1.73,-0.03,-0.00
-1.00,1.86,0.04,0.00
-1.00,1.85,-0.03,-0.00
-1.00,1.96,0.03,0.00
-1.00,1.92,-0.04,-0.00
-1.00,2.13,0.07,0.00
-1.00,2.63,0.09,0.00
-1.00,2.82,-0.16,-0.00
-1.00,2.41,-0.25,-0.02
-1.00,1.85,0.02,0.00
-1.00,1.61,0.31,0.03
-1.00,1.69,0.26,0.02
-1.00,1.61,-0.08,-0.00
-1.00,1.67,-0.12,-0.00
-1.00,1.54,-0.19,-0.01
-1.00,1.60,-0.02,-0.00
-1.00,1.56,-0.02,-0.00
-1.00,1.65,0.06,0.00
-1.00,1.62,0.00,0.00
-1.00,1.73,0.06,0.00
-1.00,1.71,-0.02,-0.00
-1.00,1.79,0.03,0.00
-1.00,1.76,-0.02,-0.00
-1.00,1.86,0.03,0.00
-1.00,1.80,-0.04,-0.00
-1.00,1.91,0.04,0.00
-1.00,1.95,-0.02,-0.00
-1.00,2.09,0.01,0.00
-1.00,2.11,-0.05,-0.00
-1.00,2.20,0.01,0.00
-1.00,2.17,-0.02,-0.00
-1.00,2.22,0.04,0.00
-1.00,2.09,-0.03,-0.00
-1.00,2.02,0.04,0.00
-1.00,1.81,-0.01,-0.00
-1.00,1.72,0.05,0.00
-1.00,1.52,-0.02,-0.00
-1.00,1.48,0.03,0.00
-1.00,1.36,-0.04,-0.00
-1.00,1.39,0.00,0.00
-1.00,1.32,-0.05,-0.00
-1.00,1.37,0.01,0.00
-1.00,1.35,-0.02,-0.00
-1.00,1.47,0.04,0.00
-1.00,1.48,-0.02,-0.00
-1.00,1.60,0.03,0.00
-1.00,1.61,-0.02,-0.00
-1.00,1.73,0.03,0.00
-1.00,1.72,-0.03,-0.00
-1.00,1.81,0.03,0.00
-1.00,1.76,-0.03,-0.00
-1.00,1.82,0.03,0.00
-1.00,1.77,-0.02,-0.00
-1.00,1.82,0.03,0.00
-1.00,1.76,-0.03,-0.00
-1.00,1.76,0.01,0.00
-1.00,1.72,-0.01,-0.00
-1.00,1.83,0.04,0.00
-1.00,1.79,-0.05,-0.00
-1.00,1.83,0.00,0.00
-1.00,1.72,-0.04,-0.00
-1.00,1.73,0.05,0.00
-1.00,1.64,-0.00,-0.00
-1.00,1.70,0.05,0.00
-1.00,1.63,-0.04,-0.00
-1.00,1.71,0.02,0.00
-1.00,1.68,-0.04,-0.00
-1.00,1.76,0.02,0.00
-1.00,1.72,-0.04,-0.00
-1.00,1.76,0.02,0.00
-1.00,1.68,-0.02,-0.00
-1.00,1.73,0.05,0.00
-1.00,1.67,-0.01,-0.00
-1.00,1.75,0.04,0.00
-1.00,1.74,-0.04,-0.00
-1.00,1.85,0.02,0.00
-1.00,1.86,-0.04,-0.00
-1.00,1.96,0.01,0.00
-1.00,1.93,-0.03,-0.00
-1.00,1.96,0.03,0.00
-1.00,1.84,-0.02,-0.00
-1.00,1.83,0.06,0.00
-1.00,1.70,-0.01,-0.00
-1.00,1.68,0.03,0.00
-1.00,1.55,-0.03,-0.00
-1.00,1.53,0.01,0.00
-1.00,1.39,-0.04,-0.00
-1.00,1.49,0.05,0.00
-1.00,1.49,-0.03,-0.00
-1.00,1.64,0.01,0.00
-1.00,1.69,-0.06,-0.00
-1.00,1.85,0.01,0.00
-1.00,1.83,-0.04,-0.00
-1.00,1.94,0.05,0.00
-1.00,2.32,0.12,0.00
-1.00,2.76,-0.00,-0.00
-1.00,2.56,-0.26,-0.02
-1.00,2.03,-0.11,-0.00
-1.00,1.62,0.20,0.01
-1.00,1.69,0.34,0.04
-1.00,1.65,0.01,0.00
-1.00,1.72,-0.11,-0.00
-1.00,1.69,-0.18,-0.01
-1.00,1.80,-0.06,-0.00
-1.00,1.79,-0.06,-0.00
-1.00,1.87,0.04,0.00
-1.00,1.84,0.02,0.00
-1.00,1.95,0.08,0.00
-1.00,1.90,-0.01,-0.00
-1.00,1.95,0.04,0.00
-1.00,1.88,-0.02,-0.00
-1.00,1.93,0.03,0.00
-1.00,1.86,-0.03,-0.00
-1.00,1.95,0.03,0.00
-1.00,1.94,-0.04,-0.00
-1.00,2.05,0.01,0.00
-1.00,1.98,-0.06,-0.00
-1.00,2.01,0.02,0.00
-1.00,1.98,0.01,0.00
-1.00,2.06,0.05,0.00
-1.00,1.95,-0.05,-0.00
-1.00,1.92,0.02,0.00
-1.00,1.72,-0.03,-0.00
-1.00,1.69,0.06,0.00
-1.00,1.57,-0.00,-0.00
-1.00,1.61,0.03,0.00
-1.00,1.51,-0.06,-0.00
-1.00,1.53,0.00,0.00
-1.00,1.45,-0.04,-0.00
-1.00,1.49,0.03,0.00
-1.00,1.44,-0.02,-0.00
-1.00,1.52,0.04,0.00
-1.00,1.47,-0.03,-0.00
-1.00,1.57,0.04,0.00
-1.00,1.56,-0.03,-0.00
-1.00,1.71,0.03,0.00
-1.00,1.72,-0.04,-0.00
-1.00,1.78,0.00,0.00
-1.00,1.69,-0.03,-0.00
-1.00,1.73,0.06,0.00
-1.00,1.63,-0.01,-0.00
-1.00,1.67,0.05,0.00
-1.00,1.61,-0.03,-0.00
-1.00,1.67,0.01,0.00
-1.00,1.62,-0.05,-0.00
-1.00,1.70,0.02,0.00
-1.00,1.65,-0.04,-0.00
-1.00,1.63,0.00,0.00
-1.00,1.56,0.00,0.00
-1.00,1.66,0.07,0.00
-1.00,1.63,-0.03,-0.00
-1.00,1.72,0.01,0.00
-1.00,1.69,-0.05,-0.00
-1.00,1.77,0.02,0.00
-1.00,1.71,-0.03,-0.00
-1.00,1.77,0.04,0.00
-1.00,1.71,-0.02,-0.00
-1.00,1.79,0.05,0.00
-1.00,1.72,-0.04,-0.00
-1.00,1.76,0.02,0.00
-1.00,1.70,-0.02,-0.00
-1.00,1.76,0.03,0.00
-1.00,1.69,-0.04,-0.00
-1.00,1.76,0.03,0.00
-1.00,1.70,-0.04,-0.00
-1.00,1.75,0.03,0.00
-1.00,1.70,-0.03,-0.00
-1.00,1.76,0.03,0.00
-1.00,1.69,-0.03,-0.00
-1.00,1.75,0.04,0.00
-1.00,1.74,-0.02,-0.00
-1.00,1.83,0.02,0.00
-1.00,1.78,-0.05,-0.00
-1.00,1.86,0.03,0.00
-1.00,1.81,-0.03,-0.00
-1.00,1.89,0.04,0.00
-1.00,1.84,-0.02,-0.00
-1.00,1.93,0.04,0.00
-1.00,1.82,-0.05,-0.00
-1.00,1.90,0.05,0.00
-1.00,1.85,-0.02,-0.00
-1.00,1.89,0.02,0.00
-1.00,1.92,-0.00,-0.00
-1.00,2.51,0.15,0.00
-1.00,2.57,-0.21,-0.01
-1.00,2.21,-0.21,-0.01
-1.00,1.48,-0.03,-0.00
-1.00,1.36,0.40,0.06
-1.00,1.37,0.22,0.01
-1.00,1.51,-0.02,-0.00
-1.00,1.46,-0.24,-0.01
-1.00,1.61,-0.11,-0.00
-1.00,1.63,-0.10,-0.00
-1.00,1.75,0.02,0.00
-1.00,1.76,0.01,0.00
-1.00,1.88,0.09,0.00
-1.00,1.85,0.01,0.00
-1.00,1.91,0.05,0.00
-1.00,1.85,-0.01,-0.00
-1.00,1.86,0.02,0.00
-1.00,1.80,-0.01,-0.00
-1.00,1.89,0.03,0.00
-1.00,1.86,-0.05,-0.00
-1.00,2.00,0.02,0.00
-1.00,2.02,-0.05,-0.00
-1.00,2.16,0.01,0.00
-1.00,2.16,-0.04,-0.00
-1.00,2.26,0.03,0.00
-1.00,2.16,-0.03,-0.00
-1.00,2.06,0.03,0.00
-1.00,1.86,0.02,0.00
-1.00,1.75,0.07,0.00
-1.00,1.56,-0.00,-0.00
-1.00,1.52,0.03,0.00
-1.00,1.43,-0.05,-0.00
-1.00,1.50,-0.00,-0.00
-1.00,1.50,-0.06,-0.00
-1.00,1.59,-0.01,-0.00
-1.00,1.52,-0.06,-0.00
-1.00,1.59,0.05,0.00
-1.00,1.56,0.01,0.00
-1.00,1.67,0.06,0.00
-1.00,1.67,-0.02,-0.00
-1.00,1.80,0.03,0.00
-1.00,1.78,-0.05,-0.00
-1.00,1.87,0.02,0.00
-1.00,1.81,-0.04,-0.00
-1.00,1.85,0.03,0.00
-1.00,1.75,-0.02,-0.00
-1.00,1.75,0.04,0.00
-1.00,1.65,-0.01,-0.00
-1.00,1.68,0.04,0.00
-1.00,1.64,-0.03,-0.00
-1.00,1.73,0.01,0.00
-1.00,1.67,-0.06,-0.00
-1.00,1.74,0.02,0.00
-1.00,1.71,-0.02,-0.00
-1.00,1.80,0.04,0.00
-1.00,1.77,-0.02,-0.00
-1.00,1.75,0.01,0.00
-1.00,1.66,-0.01,-0.00
-1.00,1.76,0.08,0.00
-1.00,1.73,-0.03,-0.00
-1.00,1.78,-0.00,-0.00
-1.00,1.69,-0.06,-0.00
-1.00,1.71,0.03,0.00
-1.00,1.60,-0.02,-0.00
-1.00,1.62,0.04,0.00
-1.00,1.54,-0.01,-0.00
-1.00,1.65,0.05,0.00
-1.00,1.63,-0.05,-0.00
-1.00,1.71,-0.00,-0.00
-1.00,1.65,-0.05,-0.00
-1.00,1.72,0.04,0.00
-1.00,1.71,-0.00,-0.00
-1.00,1.81,0.04,0.00
-1.00,1.75,-0.04,-0.00
-1.00,1.80,0.03,0.00
-1.00,1.73,-0.02,-0.00
-1.00,1.78,0.04,0.00
-1.00,1.74,-0.02,-0.00
-1.00,1.83,0.03,0.00
-1.00,1.79,-0.04,-0.00
-1.00,1.87,0.01,0.00
-1.00,1.81,-0.04,-0.00
-1.00,1.83,0.03,0.00
-1.00,1.90,0.03,0.00
-1.00,2.49,0.15,0.00
-1.00,2.49,-0.23,-0.01
-1.00,2.15,-0.19,-0.01
-1.00,1.43,-0.03,-0.00
-1.00,1.38,0.40,0.07
-1.00,1.46,0.20,0.01
-1.00,1.58,-0.07,-0.00
-1.00,1.52,-0.24,-0.01
-1.00,1.60,-0.10,-0.00
-1.00,1.57,-0.06,-0.00
-1.00,1.65,0.05,0.00
-1.00,1.63,0.02,0.00
-1.00,1.75,0.08,0.00
-1.00,1.77,0.00,0.00
-1.00,1.89,0.03,0.00
-1.00,1.83,-0.06,-0.00
-1.00,1.89,0.03,0.00
-1.00,1.81,-0.02,-0.00
-1.00,1.89,0.05,0.00
-1.00,1.84,-0.03,-0.00
-1.00,1.93,0.02,0.00
-1.00,1.93,-0.03,-0.00
-1.00,2.04,0.01,0.00
-1.00,2.01,-0.05,-0.00
-1.00,2.06,0.02,0.00
-1.00,1.98,-0.02,-0.00
-1.00,1.97,0.04,0.00
-1.00,1.79,-0.02,-0.00
-1.00,1.73,0.05,0.00
-1.00,1.54,-0.01,-0.00
-1.00,1.53,0.05,0.00
-1.00,1.42,-0.04,-0.00
-1.00,1.46,0.01,0.00
-1.00,1.38,-0.06,-0.00
-1.00,1.38,-0.00,-0.00
-1.00,1.36,-0.00,-0.00
-1.00,1.49,0.05,0.00
-1.00,1.50,-0.03,-0.00
-1.00,1.64,0.02,0.00
-1.00,1.65,-0.04,-0.00
-1.00,1.77,0.03,0.00
-1.00,1.75,-0.03,-0.00
-1.00,1.83,0.04,0.00
-1.00,1.76,-0.02,-0.00
-1.00,1.81,0.04,0.00
-1.00,1.72,-0.03,-0.00
-1.00,1.74,0.03,0.00
-1.00,1.67,-0.02,-0.00
-1.00,1.70,0.02,0.00
-1.00,1.66,-0.03,-0.00
-1.00,1.74,0.02,0.00
-1.00,1.70,-0.05,-0.00
-1.00,1.76,0.02,0.00
-1.00,1.72,-0.03,-0.00
-1.00,1.82,0.05,0.00
-1.00,1.78,-0.03,-0.00
-1.00,1.86,0.03,0.00
-1.00,1.81,-0.03,-0.00
-1.00,1.91,0.04,0.00
-1.00,1.86,-0.04,-0.00
-1.00,1.92,0.02,0.00
-1.00,1.83,-0.03,-0.00
-1.00,1.86,0.04,0.00
-1.00,1.77,-0.02,-0.00
-1.00,1.77,0.02,0.00
-1.00,1.65,-0.03,-0.00
-1.00,1.73,0.06,0.00
-1.00,1.70,-0.03,-0.00
-1.00,1.80,0.01,0.00
-1.00,1.73,-0.07,-0.00
-1.00,1.78,0.02,0.00
-1.00,1.72,-0.01,-0.00
-1.00,1.82,0.06,0.00
-1.00,1.73,-0.04,-0.00
-1.00,1.77,0.04,0.00
-1.00,1.76,-0.01,-0.00
-1.00,1.84,0.02,0.00
-1.00,1.77,-0.05,-0.00
-1.00,1.81,0.02,0.00
-1.00,1.72,-0.03,-0.00
-1.00,1.76,0.05,0.00
-1.00,1.70,-0.02,-0.00
-1.00,1.78,0.03,0.00
-1.00,1.72,-0.05,-0.00
-1.00,1.81,0.03,0.00
-1.00,1.76,-0.04,-0.00
-1.00,1.83,0.03,0.00
-1.00,2.06,0.05,0.00
-1.00,2.63,0.07,0.00
-1.00,2.57,-0.26,-0.02
-1.00,2.15,-0.17,-0.00
-1.00,1.58,0.09,0.00
-1.00,1.59,0.39,0.06
-1.00,1.55,0.11,0.00
-1.00,1.62,-0.07,-0.00
-1.00,1.49,-0.21,-0.01
-1.00,1.58,-0.05,-0.00
-1.00,1.58,-0.06,-0.00
-1.00,1.72,0.03,0.00
-1.00,1.72,-0.02,-0.00
-1.00,1.84,0.06,0.00
-1.00,1.85,0.00,0.00
-1.00,1.92,0.04,0.00
-1.00,1.87,-0.01,-0.00
-1.00,1.92,0.04,0.00
-1.00,1.88,-0.01,-0.00
-1.00,2.00,0.04,0.00
-1.00,1.98,-0.05,-0.00
-1.00,2.08,0.00,0.00
-1.00,2.04,-0.05,-0.00
-1.00,2.09,0.02,0.00
-1.00,2.01,-0.02,-0.00
-1.00,2.05,0.05,0.00
-1.00,1.87,-0.04,-0.00
-1.00,1.77,0.03,0.00
-1.00,1.58,0.00,0.00
-1.00,1.51,0.04,0.00
-1.00,1.40,-0.01,-0.00
-1.00,1.48,0.02,0.00
-1.00,1.42,-0.08,-0.00
-1.00,1.45,-0.02,-0.00
-1.00,1.40,-0.03,-0.00
-1.00,1.47,0.04,0.00
-1.00,1.47,0.00,0.00
-1.00,1.63,0.05,0.00
-1.00,1.61,-0.05,-0.00
-1.00,1.68,0.01,0.00
-1.00,1.69,-0.00,-0.00
-1.00,1.87,0.06,0.00
-1.00,1.88,-0.05,-0.00
-1.00,2.00,0.01,0.00
-1.00,1.96,-0.04,-0.00
-1.00,2.00,0.03,0.00
-1.00,1.89,-0.02,-0.00
-1.00,1.90,0.05,0.00
-1.00,1.77,-0.02,-0.00
-1.00,1.77,0.03,0.00
-1.00,1.64,-0.04,-0.00
-1.00,1.64,0.02,0.00
-1.00,1.52,-0.04,-0.00
-1.00,1.56,0.03,0.00
-1.00,1.50,-0.03,-0.00
-1.00,1.56,0.02,0.00
-1.00,1.55,-0.03,-0.00
-1.00,1.65,0.02,0.00
-1.00,1.64,-0.03,-0.00
-1.00,1.75,0.04,0.00
-1.00,1.75,-0.02,-0.00
-1.00,1.85,0.03,0.00
-1.00,1.80,-0.03,-0.00
-1.00,1.87,0.04,0.00
-1.00,1.81,-0.02,-0.00
-1.00,1.87,0.03,0.00
-1.00,1.81,-0.03,-0.00
-1.00,1.88,0.03,0.00
-1.00,1.83,-0.04,-0.00
-1.00,1.89,0.02,0.00
-1.00,1.77,-0.05,-0.00
-1.00,1.88,0.07,0.00
-1.00,1.85,-0.03,-0.00
-1.00,1.92,0.01,0.00
-1.00,1.81,-0.05,-0.00
-1.00,1.81,0.04,0.00
-1.00,1.69,-0.01,-0.00
-1.00,1.77,0.07,0.00
-1.00,1.70,-0.04,-0.00
-1.00,1.75,0.01,0.00
-1.00,1.67,-0.05,-0.00
-1.00,1.71,0.02,0.00
-1.00,1.62,-0.03,-0.00
-1.00,1.70,0.05,0.00
-1.00,1.63,-0.03,-0.00
-1.00,1.70,0.03,0.00
-1.00,1.65,-0.03,-0.00
-1.00,1.72,0.03,0.00
-1.00,1.69,-0.03,-0.00
-1.00,2.12,0.13,0.00
-1.00,2.53,-0.04,-0.00
-1.00,2.51,-0.22,-0.01
-1.00,1.89,-0.20,-0.01
-1.00,1.54,0.23,0.01
-1.00,1.48,0.32,0.03
-1.00,1.58,0.12,0.00
-1.00,1.50,-0.16,-0.00
-1.00,1.56,-0.12,-0.00
-1.00,1.53,-0.12,-0.00
-1.00,1.61,-0.01,-0.00
-1.00,1.52,-0.03,-0.00
-1.00,1.59,0.08,0.00
-1.00,1.63,0.05,0.00
-1.00,1.77,0.05,0.00
-1.00,1.75,-0.06,-0.00
-1.00,1.84,0.02,0.00
-1.00,1.81,-0.03,-0.00
-1.00,1.91,0.04,0.00
-1.00,1.88,-0.02,-0.00
-1.00,1.99,0.03,0.00
-1.00,2.00,-0.03,-0.00
-1.00,2.14,0.02,0.00
-1.00,2.11,-0.05,-0.00
-1.00,2.20,0.03,0.00
-1.00,2.11,-0.04,-0.00
-1.00,2.12,0.04,0.00
-1.00,1.96,-0.02,-0.00
-1.00,1.88,0.05,0.00
-1.00,1.67,-0.02,-0.00
-1.00,1.64,0.06,0.00
-1.00,1.50,-0.04,-0.00
-1.00,1.50,0.01,0.00
-1.00,1.40,-0.05,-0.00
-1.00,1.47,0.02,0.00
-1.00,1.41,-0.05,-0.00
-1.00,1.50,0.03,0.00
-1.00,1.46,-0.03,-0.00
-1.00,1.56,0.04,0.00
-1.00,1.56,-0.01,-0.00
-1.00,1.67,0.03,0.00
-1.00,1.66,-0.03,-0.00
-1.00,1.73,0.02,0.00
-1.00,1.70,-0.02,-0.00
-1.00,1.79,0.04,0.00
-1.00,1.72,-0.04,-0.00
-1.00,1.77,0.04,0.00
-1.00,1.71,-0.03,-0.00
-1.00,1.76,0.03,0.00
-1.00,1.70,-0.03,-0.00
-1.00,1.77,0.03,0.00
-1.00,1.73,-0.03,-0.00
-1.00,1.80,0.02,0.00
-1.00,1.75,-0.04,-0.00
-1.00,1.81,0.03,0.00
-1.00,1.73,-0.03,-0.00
-1.00,1.79,0.05,0.00
-1.00,1.74,-0.02,-0.00
-1.00,1.80,0.03,0.00
-1.00,1.73,-0.04,-0.00
-1.00,1.80,0.03,0.00
-1.00,1.74,-0.03,-0.00
-1.00,1.79,0.02,0.00
-1.00,1.69,-0.04,-0.00
-1.00,1.74,0.04,0.00
-1.00,1.65,-0.03,-0.00
-1.00,1.71,0.04,0.00
-1.00,1.65,-0.03,-0.00
-1.00,1.74,0.03,0.00
-1.00,1.72,-0.04,-0.00
-1.00,1.81,0.02,0.00
-1.00,1.76,-0.04,-0.00
-1.00,1.80,0.02,0.00
-1.00,1.63,-0.04,-0.00
-1.00,1.70,0.09,0.00
-1.00,1.72,0.01,0.00
-1.00,1.81,-0.00,-0.00
-1.00,1.74,-0.08,-0.00
-1.00,1.79,0.02,0.00
-1.00,1.71,-0.03,-0.00
-1.00,1.76,0.05,0.00
-1.00,1.70,-0.01,-0.00
-1.00,1.77,0.04,0.00
-1.00,1.71,-0.04,-0.00
-1.00,1.75,0.02,0.00
-1.00,1.67,-0.04,-0.00
-1.00,1.78,0.05,0.00
-1.00,2.17,0.08,0.00
-1.00,2.58,-0.05,-0.00
-1.00,2.29,-0.30,-0.03
-1.00,1.73,-0.08,-0.00
-1.00,1.45,0.27,0.02
-1.00,1.63,0.34,0.04
-1.00,1.65,-0.04,-0.00
-1.00,1.74,-0.14,-0.00
-1.00,1.70,-0.18,-0.01
-1.00,1.77,-0.04,-0.00
-1.00,1.73,-0.02,-0.00
-1.00,1.83,0.08,0.00
-1.00,1.76,0.00,0.00
-1.00,1.84,0.07,0.00
-1.00,1.79,-0.01,-0.00
-1.00,1.86,0.03,0.00
-1.00,1.71,-0.06,-0.00
-1.00,1.69,0.03,0.00
-1.00,1.65,0.02,0.00
-1.00,1.82,0.05,0.00
-1.00,1.85,-0.07,-0.00
-1.00,2.01,-0.01,-0.00
-1.00,2.02,-0.06,-0.00
-1.00,2.16,0.03,0.00
-1.00,2.12,-0.02,-0.00
-1.00,2.17,0.05,0.00
-1.00,2.06,-0.01,-0.00
-1.00,2.03,0.05,0.00
-1.00,1.85,-0.02,-0.00
-1.00,1.81,0.05,0.00
-1.00,1.65,-0.03,-0.00
-1.00,1.64,0.03,0.00
-1.00,1.54,-0.05,-0.00
-1.00,1.59,0.01,0.00
-1.00,1.53,-0.05,-0.00
-1.00,1.60,0.02,0.00
-1.00,1.52,-0.04,-0.00
-1.00,1.61,0.05,0.00
-1.00,1.60,-0.01,-0.00
-1.00,1.72,0.04,0.00
-1.00,1.71,-0.04,-0.00
-1.00,1.82,0.03,0.00
-1.00,1.77,-0.04,-0.00
-1.00,1.83,0.03,0.00
-1.00,1.75,-0.02,-0.00
-1.00,1.79,0.04,0.00
-1.00,1.71,-0.02,-0.00
-1.00,1.68,0.01,0.00
-1.00,1.58,-0.02,-0.00
-1.00,1.71,0.07,0.00
-1.00,1.72,-0.05,-0.00
-1.00,1.84,-0.01,-0.00
-1.00,1.86,-0.05,-0.00
-1.00,2.02,0.03,0.00
-1.00,2.05,-0.03,-0.00
-1.00,2.19,0.04,0.00
-1.00,2.18,-0.02,-0.00
-1.00,2.30,0.04,0.00
-1.00,2.23,-0.03,-0.00
-1.00,2.23,0.02,0.00
-1.00,2.07,-0.02,-0.00
-1.00,2.01,0.05,0.00
-1.00,1.84,-0.02,-0.00
-1.00,1.82,0.04,0.00
-1.00,1.70,-0.04,-0.00
-1.00,1.72,0.01,0.00
-1.00,1.63,-0.06,-0.00
-1.00,1.66,0.01,0.00
-1.00,1.57,-0.04,-0.00
-1.00,1.65,0.05,0.00
-1.00,1.61,-0.02,-0.00
-1.00,1.68,0.03,0.00
-1.00,1.63,-0.03,-0.00
-1.00,1.78,0.06,0.00
-1.00,1.96,0.01,0.00
-1.00,2.35,0.02,0.00
-1.00,2.65,-0.08,-0.00
-1.00,3.14,-0.00,-0.00
-1.00,3.38,-0.09,-0.00
-1.00,3.65,0.01,0.00
-1.00,3.45,-0.07,-0.00
-1.00,3.03,0.05,0.00
-1.00,2.43,0.12,0.00
-1.00,2.08,0.23,0.01
-1.00,1.59,0.02,0.00
-1.00,1.18,-0.04,-0.00
-1.00,0.90,-0.07,-0.00
-1.00,1.30,0.08,0.00
-1.00,1.27,-0.28,-0.02
-1.00,0.95,-0.26,-0.02
-1.00,0.30,-0.07,-0.00
-1.00,0.08,0.32,0.03
-1.00,0.06,0.27,0.02
-1.00,0.01,0.02,0.00
-1.00,0.00,-0.09,-0.00
-1.00,0.01,-0.10,-0.00
-1.00,0.04,-0.06,-0.00
-1.00,0.37,0.06,0.00
-1.00,0.77,0.00,0.00
-1.00,1.19,-0.05,-0.00
-1.00,1.33,-0.13,-0.00
-1.00,1.52,0.03,0.00
-1.00,1.59,0.06,0.00
-1.00,1.83,0.14,0.00
-1.00,1.90,-0.00,-0.00
-1.00,2.05,0.01,0.00
-1.00,2.09,-0.05,-0.00
-1.00,2.21,-0.00,-0.00
-1.00,2.20,-0.05,-0.00
-1.00,2.19,-0.01,-0.00
-1.00,2.12,-0.00,-0.00
-1.00,2.14,0.05,0.00
-1.00,1.94,-0.05,-0.00
-1.00,1.88,0.04,0.00
-1.00,1.63,-0.03,-0.00
-1.00,1.54,0.05,0.00
-1.00,1.40,-0.01,-0.00
-1.00,1.43,0.03,0.00
-1.00,1.38,-0.05,-0.00
-1.00,1.45,-0.01,-0.00
-1.00,1.40,-0.06,-0.00
-1.00,1.46,0.03,0.00
-1.00,1.44,-0.00,-0.00
-1.00,1.57,0.06,0.00
-1.00,1.52,-0.04,-0.00
-1.00,1.54,0.02,0.00
-1.00,1.37,-0.04,-0.00
-1.00,1.23,0.03,0.00
-1.00,0.86,-0.02,-0.00
-1.00,0.60,0.07,0.00
-1.00,0.28,0.03,0.00
-1.00,0.22,0.07,0.00
-1.00,0.12,-0.06,-0.00
-1.00,0.05,-0.08,-0.00
-1.00,0.01,-0.06,-0.00
-1.00,0.00,-0.02,-0.00
-1.00,0.00,0.01,0.00
-1.00,0.00,0.02,0.00
-1.00,0.00,0.02,0.00
-1.00,0.00,0.02,0.00
-1.00,0.00,0.02,0.00
-1.00,0.00,0.01,0.00
-1.00,0.00,0.00,0.00
-1.00,0.00,-0.00,-0.00
-1.00,0.00,-0.01,-0.00
-1.00,0.00,-0.01,-0.00
-1.00,0.00,-0.00,-0.00
-1.00,0.00,-0.00,-0.00
-1.00,0.00,-0.00,-0.00
-1.00,0.00,0.00,0.00
-1.00,0.00,0.00,0.00
-1.00,0.00,0.00,0.00
-1.00,0.00,0.00,0.00
-1.00,0.00,0.00,0.00
-1.00,0.00,0.00,0.00
-1.00,0.00,-0.00,-0.00
-1.00,0.00,-0.00,-0.00
-1.00,0.00,-0.00,-0.00
-1.00,0.00,-0.00,-0.00
-1.00,0.00,-0.00,-0.00
-1.00,0.00,-0.00,-0.00
-1.00,0.00,0.00,0.00
-1.00,0.00,0.00,0.00
-1.00,0.00,0.00,0.00
-1.00,0.00,0.00,0.00
-1.00,0.01,0.00,0.00
-1.00,0.00,-0.01,-0.00
-1.00,0.00,0.00,0.00
-1.00,0.00,0.00,0.00
-1.00,0.00,0.00,0.00
-1.00,0.00,-0.00,-0.00
-1.00,0.00,-0.00,-0.00
-1.00,0.00,-0.00,-0.00
-1.00,0.00,-0.00,-0.00
-1.00,0.00,-0.00,-0.00
-1.00,0.02,0.01,0.00
-1.00,0.13,0.02,0.00
-1.00,0.39,0.03,0.00
-1.00,0.09,-0.20,-0.01
-1.00,0.01,0.06,0.00
-1.00,0.01,0.12,0.00
-1.00,0.06,0.06,0.00
-1.00,0.05,-0.04,-0.00
-1.00,0.39,0.05,0.00
-1.00,0.41,-0.14,-0.00
-1.00,0.69,0.01,0.00
-1.00,0.64,-0.10,-0.00
-1.00,0.88,0.10,0.00
-1.00,0.76,-0.05,-0.00
-1.00,0.93,0.12,0.00
-1.00,0.81,-0.04,-0.00
-1.00,1.04,0.10,0.00
-1.00,0.97,-0.09,-0.00
-1.00,1.18,0.04,0.00
-1.00,1.10,-0.10,-0.00
-1.00,1.44,0.10,0.00
-1.00,1.33,-0.13,-0.00
-1.00,1.44,0.04,0.00
-1.00,1.26,-0.04,-0.00
-1.00,1.42,0.13,0.00
-1.00,1.18,-0.08,-0.00
-1.00,1.05,0.03,0.00
-1.00,0.72,-0.02,-0.00
-1.00,1.05,0.21,0.01
-1.00,1.22,-0.07,-0.00
-1.00,1.63,-0.07,-0.00
-1.00,1.74,-0.19,-0.01
-1.00,2.08,0.01,0.00
-1.00,1.83,-0.12,-0.00
-1.00,1.86,0.17,0.01
-1.00,1.53,0.05,0.00
-1.00,1.52,0.18,0.01
-1.00,1.30,-0.02,-0.00
-1.00,1.54,0.09,0.00
-1.00,1.46,-0.18,-0.01
-1.00,1.63,-0.05,-0.00
-1.00,1.41,-0.16,-0.00
-1.00,1.57,0.11,0.00
-1.00,1.31,-0.06,-0.00
-1.00,1.32,0.12,0.00
-1.00,0.94,-0.05,-0.00
-1.00,0.82,0.11,0.00
-1.00,0.35,-0.06,-0.00
-1.00,0.17,0.09,0.00
-1.00,0.05,0.03,0.00
-1.00,0.06,-0.02,-0.00
-1.00,0.02,-0.10,-0.00
-1.00,0.07,-0.05,-0.00
-1.00,0.02,-0.05,-0.00
-1.00,0.06,0.03,0.00
-1.00,0.01,0.02,0.00
-1.00,0.06,0.07,0.00
-1.00,0.04,0.01,0.00
-1.00,0.23,0.06,0.00
-1.00,0.15,-0.09,-0.00
-1.00,0.40,0.07,0.00
-1.00,0.36,-0.09,-0.00
-1.00,0.61,0.06,0.00
-1.00,0.52,-0.09,-0.00
-1.00,0.73,0.08,0.00
-1.00,0.66,-0.05,-0.00
-1.00,0.79,0.06,0.00
-1.00,0.69,-0.04,-0.00
-1.00,1.10,0.14,0.00
-1.00,1.23,-0.10,-0.00
-1.00,1.87,0.07,0.00
-1.00,2.43,-0.09,-0.00
-1.00,3.15,-0.06,-0.00
-1.00,3.33,-0.21,-0.01
-1.00,3.56,0.05,0.00
-1.00,3.34,0.03,0.00
-1.00,3.26,0.22,0.01
-1.00,3.30,0.19,0.01
-1.00,3.72,0.13,0.00
-1.00,3.72,-0.24,-0.01
-1.00,3.82,-0.15,-0.00
-1.00,3.28,-0.24,-0.01
-1.00,2.83,0.08,0.00
-1.00,2.16,0.11,0.00
-1.00,1.72,0.21,0.01
-1.00,1.09,0.01,0.00
-1.00,1.07,0.13,0.00
-1.00,1.14,-0.08,-0.00
-1.00,0.92,-0.30,-0.03
-1.00,0.31,-0.25,-0.02
-1.00,0.07,0.16,0.00
-1.00,0.04,0.22,0.01
-1.00,0.13,0.09,0.00
-1.00,0.04,-0.11,-0.00
-1.00,0.02,-0.05,-0.00
-1.00,0.00,-0.02,-0.00
-1.00,0.02,0.02,0.00
-1.00,0.00,0.01,0.00
-1.00,0.00,0.02,0.00
-1.00,0.06,0.03,0.00
-1.00,0.53,0.11,0.00
-1.00,0.94,-0.07,-0.00
-1.00,1.57,-0.05,-0.00
-1.00,1.79,-0.20,-0.01
-1.00,2.17,0.03,0.00
-1.00,2.26,0.00,0.00
-1.00,2.46,0.14,0.00
-1.00,2.25,-0.01,-0.00
-1.00,2.19,0.11,0.00
-1.00,1.94,0.01,0.00
-1.00,2.15,0.14,0.00
-1.00,2.26,-0.08,-0.00
-1.00,2.69,-0.05,-0.00
-1.00,2.83,-0.21,-0.01
-1.00,3.09,-0.06,-0.00
-1.00,2.89,-0.10,-0.00
-1.00,3.04,0.20,0.01
-1.00,2.96,0.07,0.00
-1.00,3.01,0.09,0.00
-1.00,2.61,-0.10,-0.00
-1.00,2.35,0.04,0.00
-1.00,1.78,-0.04,-0.00
-1.00,1.49,0.11,0.00
-1.00,1.03,-0.03,-0.00
-1.00,0.86,0.04,0.00
-1.00,0.64,-0.07,-0.00
-1.00,0.77,0.01,0.00
-1.00,0.74,-0.13,-0.00
-1.00,0.89,-0.03,-0.00
-1.00,0.72,-0.10,-0.00
-1.00,0.84,0.12,0.00
-1.00,0.81,0.04,0.00
-1.00,1.15,0.15,0.00
-1.00,1.29,-0.06,-0.00
-1.00,1.74,0.03,0.00
-1.00,1.94,-0.12,-0.00
-1.00,2.40,0.03,0.00
-1.00,2.57,-0.09,-0.00
-1.00,2.86,0.05,0.00
-1.00,2.65,-0.09,-0.00
-1.00,2.56,0.11,0.00
-1.00,2.18,0.04,0.00
-1.00,2.13,0.17,0.00
-1.00,1.78,-0.06,-0.00
-1.00,1.77,0.04,0.00
-1.00,1.57,-0.12,-0.00
-1.00,1.73,0.01,0.00
-1.00,1.66,-0.13,-0.00
-1.00,2.04,0.07,0.00
-1.00,2.12,-0.11,-0.00
-1.00,2.39,0.02,0.00
-1.00,1.95,-0.17,-0.01
-1.00,1.63,0.12,0.00
-1.00,1.51,0.25,0.02
-1.00,2.20,0.33,0.04
-1.00,2.49,-0.22,-0.01
-1.00,3.69,-0.00,-0.00
-1.00,4.39,-0.35,-0.04
-1.00,4.63,-0.32,-0.03
-1.00,3.98,-0.18,-0.01
-1.00,3.36,0.35,0.04
-1.00,2.45,0.37,0.05
-1.00,2.36,0.52,0.14
-1.00,2.22,0.01,0.00
-1.00,2.70,-0.12,-0.00
-1.00,2.52,-0.56,-0.18
-1.00,1.70,-0.47,-0.10
-1.00,0.47,-0.05,-0.00
-1.00,0.10,0.59,0.20
-1.00,0.02,0.38,0.06
-1.00,0.00,-0.03,-0.00
-1.00,0.02,-0.22,-0.01
-1.00,0.40,-0.12,-0.00
-1.00,1.04,-0.06,-0.00
-1.00,2.54,0.14,0.00
-1.00,3.58,-0.27,-0.02
-1.00,4.69,-0.13,-0.00
-1.00,4.95,-0.20,-0.01
-1.00,5.00,0.16,0.00
-1.00,5.00,0.36,0.05
-1.00,4.87,0.27,0.02
-1.00,4.14,-0.04,-0.00
-1.00,3.50,0.05,0.00
-1.00,2.39,-0.12,-0.00
-1.00,1.79,0.11,0.00
-1.00,1.21,-0.04,-0.00
-1.00,1.28,0.02,0.00
-1.00,1.19,-0.27,-0.02
-1.00,1.29,-0.18,-0.01
-1.00,0.77,-0.28,-0.02
-1.00,0.62,0.17,0.00
-1.00,0.22,0.14,0.00
-1.00,0.05,0.22,0.01
-1.00,0.00,0.13,0.00
-1.00,0.00,-0.02,-0.00
-1.00,0.00,-0.09,-0.00
-1.00,0.27,-0.02,-0.00
-1.00,0.80,0.00,0.00
-1.00,2.34,0.19,0.01
-1.00,2.92,-0.46,-0.09
-1.00,2.43,-0.50,-0.12
-1.00,2.37,0.31,0.03
-1.00,2.46,0.48,0.11
-1.00,1.28,-0.12,-0.00
-1.00,0.43,0.21,0.01
-1.00,0.10,0.31,0.03
-1.00,0.27,0.09,0.00
-1.00,0.90,-0.17,-0.01
-1.00,2.06,-0.28,-0.02
-1.00,2.81,-0.51,-0.14
-1.00,4.39,0.02,0.00
-1.00,4.90,-0.29,-0.03
-1.00,4.96,0.00,0.00
-1.00,4.44,0.24,0.01
-1.00,3.62,0.40,0.07
-1.00,2.14,0.23,0.01
-1.00,1.09,0.37,0.05
-1.00,0.29,0.13,0.00
-1.00,0.06,-0.07,-0.00
-1.00,0.02,-0.36,-0.05
-1.00,0.13,-0.41,-0.07
-1.00,0.04,-0.36,-0.05
-1.00,0.15,-0.02,-0.00
-1.00,0.16,0.10,0.00
-1.00,0.69,0.33,0.04
-1.00,0.94,0.05,0.00
-1.00,1.33,0.05,0.00
-1.00,1.26,-0.12,-0.00
-1.00,1.43,0.10,0.00
-1.00,1.33,0.00,0.00
-1.00,1.71,0.17,0.01
-1.00,1.85,-0.08,-0.00
-1.00,2.35,0.00,0.00
-1.00,2.40,-0.22,-0.01
-1.00,2.60,-0.02,-0.00
-1.00,2.29,-0.10,-0.00
-1.00,2.31,0.19,0.01
-1.00,2.40,0.15,0.00
-1.00,2.71,0.08,0.00
-1.00,2.16,-0.32,-0.03
-1.00,1.64,-0.04,-0.00
-1.00,1.22,0.16,0.00
-1.00,1.39,0.29,0.02
-1.00,1.39,-0.08,-0.00
-1.00,1.84,-0.05,-0.00
-1.00,1.85,-0.29,-0.03
-1.00,2.13,-0.04,-0.00
-1.00,2.00,-0.08,-0.00
-1.00,2.10,0.15,0.00
-1.00,1.66,-0.01,-0.00
-1.00,1.43,0.17,0.01
-1.00,0.81,0.00,0.00
-1.00,0.46,0.13,0.00
-1.00,0.14,0.03,0.00
-1.00,0.22,0.04,0.00
-1.00,0.59,-0.06,-0.00
-1.00,1.49,-0.06,-0.00
-1.00,2.06,-0.32,-0.03
-1.00,2.85,-0.10,-0.00
-1.00,3.21,-0.11,-0.00
-1.00,3.63,0.15,0.00
-1.00,3.53,0.07,0.00
-1.00,3.60,0.25,0.02
-1.00,3.09,0.02,0.00
-1.00,2.93,0.18,0.01
-1.00,2.64,0.00,0.00
-1.00,2.74,0.02,0.00
-1.00,2.61,-0.21,-0.01
-1.00,2.90,-0.05,-0.00
-1.00,2.71,-0.25,-0.02
-1.00,2.63,-0.02,-0.00
-1.00,2.33,0.02,0.00
-1.00,2.37,0.22,0.01
-1.00,2.21,0.03,0.00
-1.00,2.56,0.15,0.00
-1.00,2.27,-0.24,-0.01
-1.00,2.17,-0.02,-0.00
-1.00,1.72,-0.06,-0.00
-1.00,1.62,0.17,0.00
-1.00,1.31,0.02,0.00
-1.00,1.32,0.08,0.00
-1.00,1.02,-0.13,-0.00
-1.00,1.12,0.05,0.00
-1.00,1.14,-0.05,-0.00
-1.00,1.68,0.09,0.00
-1.00,1.87,-0.17,-0.01
-1.00,2.15,-0.06,-0.00
-1.00,1.99,-0.10,-0.00
-1.00,2.27,0.22,0.01
-1.00,2.34,0.07,0.00
-1.00,2.59,0.08,0.00
-1.00,2.49,-0.11,-0.00
-1.00,2.66,0.05,0.00
-1.00,2.41,-0.11,-0.00
-1.00,2.37,0.06,0.00
-1.00,1.94,-0.07,-0.00
-1.00,1.78,0.11,0.00
-1.00,1.36,-0.03,-0.00
-1.00,1.33,0.11,0.00
-1.00,1.23,-0.05,-0.00
-1.00,1.41,-0.01,-0.00
-1.00,1.39,-0.15,-0.00
-1.00,1.82,0.06,0.00
-1.00,1.98,-0.10,-0.00
-1.00,2.39,0.04,0.00
-1.00,2.45,-0.07,-0.00
-1.00,2.80,0.12,0.00
-1.00,2.80,-0.02,-0.00
-1.00,3.08,0.12,0.00
-1.00,3.48,0.07,0.00
-1.00,4.02,-0.00,-0.00
-1.00,3.62,-0.36,-0.05
-1.00,3.04,-0.06,-0.00
-1.00,2.61,0.25,0.02
-1.00,2.85,0.40,0.06
-1.00,2.75,-0.10,-0.00
-1.00,2.71,-0.18,-0.01
-1.00,2.26,-0.26,-0.02
-1.00,2.09,0.05,0.00
-1.00,1.72,0.02,0.00
-1.00,1.72,0.17,0.00
-1.00,1.54,-0.03,-0.00
-1.00,1.74,0.06,0.00
-1.00,1.76,-0.11,-0.00
-1.00,2.12,0.02,0.00
-1.00,2.16,-0.13,-0.00
-1.00,2.45,0.05,0.00
-1.00,2.42,-0.05,-0.00
-1.00,2.62,0.11,0.00
-1.00,2.59,0.00,0.00
-1.00,2.87,0.12,0.00
-1.00,2.84,-0.08,-0.00
-1.00,2.99,0.02,0.00
-1.00,2.74,-0.12,-0.00
-1.00,2.76,0.09,0.00
-1.00,2.50,-0.03,-0.00
-1.00,2.50,0.09,0.00
-1.00,2.20,-0.07,-0.00
-1.00,2.19,0.06,0.00
-1.00,1.93,-0.08,-0.00
-1.00,1.96,0.05,0.00
-1.00,1.81,-0.06,-0.00
-1.00,1.98,0.06,0.00
-1.00,1.87,-0.10,-0.00
-1.00,2.11,0.07,0.00
-1.00,2.08,-0.08,-0.00
-1.00,2.33,0.07,0.00
-1.00,2.23,-0.08,-0.00
-1.00,2.39,0.08,0.00
-1.00,2.25,-0.04,-0.00
-1.00,2.41,0.11,0.00
-1.00,2.30,-0.06,-0.00
-1.00,2.43,0.05,0.00
-1.00,2.18,-0.11,-0.00
-1.00,2.37,0.11,0.00
-1.00,2.23,-0.07,-0.00
-1.00,2.40,0.06,0.00
-1.00,2.43,-0.05,-0.00
-1.00,2.80,0.06,0.00
-1.00,2.78,-0.14,-0.00
-1.00,2.91,0.01,0.00
-1.00,2.61,-0.08,-0.00
-1.00,2.54,0.14,0.00
-1.00,2.20,0.03,0.00
-1.00,2.29,0.17,0.00
-1.00,2.26,-0.04,-0.00
-1.00,2.63,0.02,0.00
-1.00,2.68,-0.21,-0.01
-1.00,2.97,-0.04,-0.00
-1.00,2.92,-0.11,-0.00
-1.00,3.11,0.11,0.00
-1.00,3.00,-0.00,-0.00
-1.00,3.06,0.11,0.00
-1.00,2.75,-0.05,-0.00
-1.00,2.69,0.10,0.00
-1.00,2.35,-0.05,-0.00
-1.00,2.36,0.09,0.00
-1.00,2.16,-0.08,-0.00
-1.00,2.26,0.02,0.00
-1.00,2.12,-0.12,-0.00
-1.00,2.30,0.04,0.00
-1.00,2.10,-0.12,-0.00
-1.00,2.26,0.11,0.00
-1.00,2.66,0.11,0.00
-1.00,3.26,0.02,0.00
-1.00,2.90,-0.37,-0.05
-1.00,2.31,-0.09,-0.00
-1.00,1.84,0.26,0.02
-1.00,2.05,0.44,0.09
-1.00,2.00,-0.03,-0.00
-1.00,2.21,-0.11,-0.00
-1.00,2.06,-0.28,-0.02
-1.00,2.21,-0.02,-0.00
-1.00,1.98,-0.10,-0.00
-1.00,2.07,0.14,0.00
-1.00,1.86,0.00,0.00
-1.00,1.99,0.14,0.00
-1.00,1.84,-0.05,-0.00
-1.00,2.02,0.07,0.00
-1.00,1.89,-0.11,-0.00
-1.00,2.08,0.05,0.00
-1.00,1.99,-0.08,-0.00
-1.00,2.22,0.08,0.00
-1.00,2.11,-0.09,-0.00
-1.00,2.30,0.08,0.00
-1.00,2.15,-0.07,-0.00
-1.00,2.32,0.10,0.00
-1.00,2.13,-0.07,-0.00
-1.00,2.26,0.09,0.00
-1.00,2.04,-0.08,-0.00
-1.00,2.14,0.08,0.00
-1.00,1.89,-0.08,-0.00
-1.00,1.97,0.08,0.00
-1.00,1.75,-0.07,-0.00
-1.00,1.87,0.08,0.00
-1.00,1.68,-0.09,-0.00
-1.00,1.83,0.08,0.00
-1.00,1.70,-0.08,-0.00
-1.00,1.90,0.08,0.00
-1.00,1.75,-0.10,-0.00
-1.00,1.96,0.09,0.00
-1.00,1.84,-0.07,-0.00
-1.00,2.06,0.09,0.00
-1.00,1.92,-0.09,-0.00
-1.00,2.10,0.08,0.00
-1.00,1.94,-0.08,-0.00
-1.00,2.11,0.09,0.00
-1.00,1.98,-0.07,-0.00
-1.00,2.20,0.08,0.00
-1.00,2.09,-0.10,-0.00
-1.00,2.28,0.06,0.00
-1.00,2.12,-0.09,-0.00
-1.00,2.26,0.09,0.00
-1.00,2.09,-0.06,-0.00
-1.00,2.22,0.09,0.00
-1.00,2.02,-0.08,-0.00
-1.00,2.15,0.08,0.00
-1.00,1.97,-0.08,-0.00
-1.00,2.15,0.08,0.00
-1.00,2.01,-0.09,-0.00
-1.00,2.19,0.06,0.00
-1.00,2.06,-0.09,-0.00
-1.00,2.26,0.08,0.00
-1.00,2.15,-0.08,-0.00
-1.00,2.28,0.06,0.00
-1.00,2.03,-0.09,-0.00
-1.00,2.11,0.11,0.00
-1.00,1.89,-0.04,-0.00
-1.00,2.00,0.09,0.00
-1.00,1.82,-0.08,-0.00
-1.00,1.98,0.06,0.00
-1.00,1.82,-0.11,-0.00
-1.00,1.98,0.06,0.00
-1.00,1.76,-0.10,-0.00
-1.00,1.92,0.11,0.00
-1.00,2.22,0.07,0.00
-1.00,2.77,0.02,0.00
-1.00,2.39,-0.36,-0.05
-1.00,1.83,-0.08,-0.00
-1.00,1.31,0.22,0.01
-1.00,1.51,0.44,0.08
-1.00,1.47,-0.03,-0.00
-1.00,1.66,-0.11,-0.00
-1.00,1.54,-0.27,-0.02
-1.00,1.77,-0.01,-0.00
-1.00,1.67,-0.09,-0.00
-1.00,1.89,0.12,0.00
-1.00,1.77,-0.03,-0.00
-1.00,1.97,0.13,0.00
-1.00,1.87,-0.04,-0.00
-1.00,2.04,0.08,0.00
-1.00,1.90,-0.08,-0.00
-1.00,2.08,0.08,0.00
-1.00,1.96,-0.09,-0.00
-1.00,2.17,0.07,0.00
-1.00,2.05,-0.09,-0.00
-1.00,2.23,0.06,0.00
-1.00,2.08,-0.08,-0.00
-1.00,2.23,0.08,0.00
-1.00,2.05,-0.07,-0.00
-1.00,2.19,0.10,0.00
-1.00,1.97,-0.08,-0.00
-1.00,2.06,0.08,0.00
-1.00,1.80,-0.08,-0.00
-1.00,1.89,0.09,0.00
-1.00,1.67,-0.07,-0.00
-1.00,1.77,0.07,0.00
-1.00,1.56,-0.09,-0.00
-1.00,1.74,0.09,0.00
-1.00,1.64,-0.08,-0.00
-1.00,1.80,0.04,0.00
-1.00,1.65,-0.09,-0.00
-1.00,1.83,0.09,0.00
-1.00,1.75,-0.05,-0.00
-1.00,2.01,0.09,0.00
-1.00,1.95,-0.09,-0.00
-1.00,2.21,0.07,0.00
-1.00,2.15,-0.09,-0.00
-1.00,2.40,0.08,0.00
-1.00,2.35,-0.07,-0.00
-1.00,2.59,0.08,0.00
-1.00,2.53,-0.07,-0.00
-1.00,2.72,0.06,0.00
-1.00,2.55,-0.09,-0.00
-1.00,2.65,0.08,0.00
-1.00,2.40,-0.07,-0.00
-1.00,2.47,0.10,0.00
-1.00,2.20,-0.07,-0.00
-1.00,2.28,0.08,0.00
-1.00,2.05,-0.09,-0.00
-1.00,2.16,0.07,0.00
-1.00,1.95,-0.10,-0.00
-1.00,2.08,0.07,0.00
-1.00,1.95,-0.07,-0.00
-1.00,2.11,0.07,0.00
-1.00,2.00,-0.07,-0.00
-1.00,2.15,0.06,0.00
-1.00,1.95,-0.08,-0.00
-1.00,2.01,0.09,0.00
-1.00,1.79,-0.04,-0.00
-1.00,1.90,0.10,0.00
-1.00,1.72,-0.07,-0.00
-1.00,1.86,0.06,0.00
-1.00,1.69,-0.10,-0.00
-1.00,1.86,0.07,0.00
-1.00,2.06,0.01,0.00
-1.00,2.72,0.08,0.00
-1.00,2.46,-0.35,-0.04
-1.00,2.04,-0.09,-0.00
-1.00,1.46,0.13,0.00
-1.00,1.58,0.44,0.08
-1.00,1.51,0.04,0.00
-1.00,1.63,-0.07,-0.00
-1.00,1.40,-0.26,-0.02
-1.00,1.47,-0.03,-0.00
-1.00,1.27,-0.07,-0.00
-1.00,1.39,0.11,0.00
-1.00,1.26,-0.02,-0.00
-1.00,1.48,0.11,0.00
-1.00,1.40,-0.08,-0.00
-1.00,1.61,0.05,0.00
-1.00,1.51,-0.09,-0.00
-1.00,1.68,0.07,0.00
-1.00,1.56,-0.06,-0.00
-1.00,1.74,0.09,0.00
-1.00,1.66,-0.05,-0.00
-1.00,1.89,0.07,0.00
-1.00,1.86,-0.08,-0.00
-1.00,2.04,0.03,0.00
-1.00,1.93,-0.08,-0.00
-1.00,2.10,0.09,0.00
-1.00,1.87,-0.09,-0.00
-1.00,1.88,0.08,0.00
-1.00,1.60,-0.03,-0.00
-1.00,1.61,0.10,0.00
-1.00,1.42,-0.04,-0.00
-1.00,1.49,0.05,0.00
-1.00,1.33,-0.10,-0.00
-1.00,1.51,0.05,0.00
-1.00,1.43,-0.09,-0.00
-1.00,1.63,0.05,0.00
-1.00,1.53,-0.08,-0.00
-1.00,1.72,0.08,0.00
-1.00,1.58,-0.06,-0.00
-1.00,1.72,0.09,0.00
-1.00,1.58,-0.04,-0.00
-1.00,1.74,0.09,0.00
-1.00,1.63,-0.07,-0.00
-1.00,1.78,0.05,0.00
-1.00,1.65,-0.09,-0.00
-1.00,1.82,0.07,0.00
-1.00,1.74,-0.06,-0.00
-1.00,1.84,0.04,0.00
-1.00,1.68,-0.07,-0.00
-1.00,1.79,0.08,0.00
-1.00,1.62,-0.05,-0.00
-1.00,1.74,0.08,0.00
-1.00,1.61,-0.07,-0.00
-1.00,1.74,0.06,0.00
-1.00,1.59,-0.09,-0.00
-1.00,1.75,0.08,0.00
-1.00,1.62,-0.08,-0.00
-1.00,1.76,0.07,0.00
-1.00,1.61,-0.07,-0.00
-1.00,1.73,0.07,0.00
-1.00,1.55,-0.06,-0.00
-1.00,1.71,0.09,0.00
-1.00,1.64,-0.05,-0.00
-1.00,1.88,0.06,0.00
-1.00,1.83,-0.11,-0.00
-1.00,1.96,0.02,0.00
-1.00,1.68,-0.10,-0.00
-1.00,1.71,0.12,0.00
-1.00,1.81,0.09,0.00
-1.00,2.34,0.11,0.00
-1.00,2.15,-0.30,-0.03
-1.00,1.68,-0.17,-0.00
-1.00,1.11,0.08,0.00
-1.00,1.06,0.34,0.04
-1.00,0.97,0.09,0.00
-1.00,1.11,-0.03,-0.00
-1.00,1.20,-0.17,-0.00
-1.00,1.54,-0.08,-0.00
-1.00,1.63,-0.16,-0.00
-1.00,1.92,0.03,0.00
-1.00,1.89,-0.03,-0.00
-1.00,2.01,0.12,0.00
-1.00,1.88,0.03,0.00
-1.00,1.94,0.12,0.00
-1.00,1.70,-0.04,-0.00
-1.00,1.69,0.06,0.00
-1.00,1.53,-0.05,-0.00
-1.00,1.67,0.04,0.00
-1.00,1.54,-0.12,-0.00
-1.00,1.70,0.02,0.00
-1.00,1.66,-0.07,-0.00
-1.00,1.87,0.05,0.00
-1.00,1.83,-0.06,-0.00
-1.00,1.97,0.05,0.00
-1.00,1.88,-0.03,-0.00
-1.00,2.05,0.10,0.00
-1.00,1.96,-0.05,-0.00
-1.00,2.16,0.08,0.00
-1.00,2.09,-0.07,-0.00
-1.00,2.31,0.05,0.00
-1.00,2.31,-0.07,-0.00
-1.00,2.48,0.02,0.00
-1.00,2.37,-0.08,-0.00
-1.00,2.43,0.06,0.00
-1.00,2.23,-0.03,-0.00
-1.00,2.32,0.11,0.00
-1.00,2.20,-0.03,-0.00
-1.00,2.31,0.04,0.00
-1.00,2.14,-0.10,-0.00
-1.00,2.24,0.05,0.00
-1.00,2.11,-0.06,-0.00
-1.00,2.19,0.05,0.00
-1.00,2.01,-0.07,-0.00
-1.00,2.10,0.08,0.00
-1.00,1.98,-0.03,-0.00
-1.00,2.07,0.05,0.00
-1.00,1.98,-0.05,-0.00
-1.00,2.14,0.05,0.00
-1.00,2.08,-0.07,-0.00
-1.00,2.21,0.04,0.00
-1.00,2.11,-0.06,-0.00
-1.00,2.27,0.08,0.00
-1.00,2.26,-0.03,-0.00
-1.00,2.55,0.07,0.00
-1.00,2.55,-0.10,-0.00
-1.00,2.75,0.02,0.00
-1.00,2.61,-0.09,-0.00
-1.00,2.59,0.06,0.00
-1.00,2.30,-0.01,-0.00
-1.00,2.22,0.11,0.00
-1.00,1.99,0.00,0.00
-1.00,2.03,0.06,0.00
-1.00,1.92,-0.08,-0.00
-1.00,2.03,-0.01,-0.00
-1.00,1.92,-0.12,-0.00
-1.00,2.05,0.04,0.00
-1.00,2.21,0.02,0.00
-1.00,2.99,0.16,0.00
-1.00,3.06,-0.27,-0.02
-1.00,2.82,-0.18,-0.01
-1.00,2.13,-0.01,-0.00
-1.00,2.04,0.42,0.07
-1.00,1.91,0.19,0.01
-1.00,1.95,0.01,0.00
-1.00,1.72,-0.22,-0.01
-1.00,1.72,-0.08,-0.00
-1.00,1.52,-0.11,-0.00
-1.00,1.58,0.06,0.00
-1.00,1.52,-0.02,-0.00
-1.00,1.72,0.08,0.00
-1.00,1.66,-0.07,-0.00
-1.00,1.85,0.06,0.00
-1.00,1.76,-0.06,-0.00
-1.00,1.90,0.07,0.00
-1.00,1.79,-0.04,-0.00
-1.00,1.93,0.08,0.00
-1.00,1.82,-0.06,-0.00
-1.00,1.97,0.06,0.00
-1.00,1.89,-0.07,-0.00
-1.00,2.08,0.05,0.00
-1.00,2.02,-0.08,-0.00
-1.00,2.19,0.05,0.00
-1.00,2.10,-0.07,-0.00
-1.00,2.20,0.06,0.00
-1.00,2.05,-0.05,-0.00
-1.00,2.06,0.07,0.00
-1.00,1.84,-0.04,-0.00
-1.00,1.86,0.08,0.00
-1.00,1.67,-0.05,-0.00
-1.00,1.74,0.05,0.00
-1.00,1.64,-0.07,-0.00
-1.00,1.79,0.03,0.00
-1.00,1.72,-0.09,-0.00
-1.00,1.87,0.04,0.00
-1.00,1.80,-0.05,-0.00
-1.00,1.92,0.06,0.00
-1.00,1.83,-0.03,-0.00
-1.00,1.90,0.06,0.00
-1.00,1.75,-0.04,-0.00
-1.00,1.85,0.08,0.00
-1.00,1.74,-0.05,-0.00
-1.00,1.88,0.05,0.00
-1.00,1.81,-0.07,-0.00
-1.00,1.97,0.03,0.00
-1.00,1.89,-0.08,-0.00
-1.00,2.01,0.05,0.00
-1.00,1.89,-0.05,-0.00
-1.00,1.98,0.07,0.00
-1.00,1.82,-0.04,-0.00
-1.00,1.90,0.07,0.00
-1.00,1.74,-0.05,-0.00
-1.00,1.87,0.07,0.00
-1.00,1.74,-0.07,-0.00
-1.00,1.87,0.05,0.00
-1.00,1.77,-0.07,-0.00
-1.00,1.95,0.06,0.00
-1.00,1.84,-0.07,-0.00
-1.00,1.96,0.05,0.00
-1.00,1.83,-0.05,-0.00
-1.00,1.91,0.07,0.00
-1.00,1.78,-0.03,-0.00
-1.00,1.92,0.08,0.00
-1.00,1.81,-0.07,-0.00
-1.00,1.91,0.04,0.00
-1.00,1.79,-0.06,-0.00
-1.00,1.85,0.04,0.00
-1.00,1.76,-0.03,-0.00
-1.00,2.39,0.20,0.01
-1.00,2.65,-0.15,-0.00
-1.00,2.67,-0.20,-0.01
-1.00,2.01,-0.20,-0.01
-1.00,1.84,0.30,0.03
-1.00,1.79,0.26,0.02
-1.00,2.00,0.12,0.00
-1.00,1.92,-0.20,-0.01
-1.00,2.10,-0.09,-0.00
-1.00,2.03,-0.15,-0.00
-1.00,2.13,0.02,0.00
-1.00,1.96,-0.04,-0.00
-1.00,2.06,0.13,0.00
-1.00,1.94,0.00,0.00
-1.00,2.00,0.06,0.00
-1.00,1.84,-0.06,-0.00
-1.00,1.93,0.06,0.00
-1.00,1.80,-0.06,-0.00
-1.00,1.93,0.05,0.00
-1.00,1.84,-0.07,-0.00
-1.00,2.02,0.05,0.00
-1.00,1.97,-0.07,-0.00
-1.00,2.06,0.02,0.00
-1.00,1.87,-0.06,-0.00
-1.00,1.87,0.08,0.00
-1.00,1.63,-0.02,-0.00
-1.00,1.64,0.10,0.00
-1.00,1.40,-0.06,-0.00
-1.00,1.40,0.05,0.00
-1.00,1.25,-0.06,-0.00
-1.00,1.32,0.03,0.00
-1.00,1.18,-0.08,-0.00
-1.00,1.30,0.05,0.00
-1.00,1.25,-0.05,-0.00
-1.00,1.44,0.06,0.00
-1.00,1.36,-0.08,-0.00
-1.00,1.50,0.06,0.00
-1.00,1.40,-0.04,-0.00
-1.00,1.51,0.07,0.00
-1.00,1.43,-0.03,-0.00
-1.00,1.57,0.06,0.00
-1.00,1.49,-0.06,-0.00
-1.00,1.60,0.03,0.00
-1.00,1.48,-0.07,-0.00
-1.00,1.59,0.06,0.00
-1.00,1.47,-0.05,-0.00
-1.00,1.59,0.07,0.00
-1.00,1.51,-0.05,-0.00
-1.00,1.63,0.04,0.00
-1.00,1.53,-0.06,-0.00
-1.00,1.61,0.04,0.00
-1.00,1.48,-0.05,-0.00
-1.00,1.56,0.07,0.00
-1.00,1.39,-0.05,-0.00
-1.00,1.45,0.06,0.00
-1.00,1.30,-0.05,-0.00
-1.00,1.33,0.04,0.00
-1.00,1.19,-0.05,-0.00
-1.00,1.27,0.05,0.00
-1.00,1.14,-0.06,-0.00
-1.00,1.27,0.06,0.00
-1.00,1.20,-0.06,-0.00
-1.00,1.38,0.05,0.00
-1.00,1.34,-0.07,-0.00
-1.00,1.45,0.03,0.00
-1.00,1.32,-0.05,-0.00
-1.00,1.35,0.06,0.00
-1.00,1.19,-0.02,-0.00
-1.00,1.23,0.08,0.00
-1.00,1.24,0.00,0.00
-1.00,1.62,0.07,0.00
-1.00,1.62,-0.18,-0.01
-1.00,1.61,-0.08,-0.00
-1.00,1.14,-0.10,-0.00
-1.00,0.80,0.15,0.00
-1.00,0.63,0.20,0.01
-1.00,0.91,0.19,0.01
-1.00,0.73,-0.23,-0.01
-1.00,0.38,-0.21,-0.01
-1.00,0.13,0.01,0.00
-1.00,0.31,0.19,0.01
-1.00,0.31,-0.03,-0.00
-1.00,0.50,-0.02,-0.00
-1.00,0.43,-0.13,-0.00
-1.00,0.63,0.05,0.00
-1.00,0.65,-0.01,-0.00
-1.00,0.99,0.10,0.00
-1.00,1.19,-0.03,-0.00
-1.00,1.68,0.05,0.00
-1.00,2.07,-0.06,-0.00
-1.00,2.73,0.02,0.00
-1.00,3.18,-0.09,-0.00
-1.00,3.81,0.02,0.00
-1.00,4.15,-0.06,-0.00
-1.00,4.65,0.08,0.00
-1.00,4.78,-0.04,-0.00
-1.00,4.93,0.07,0.00
-1.00,4.81,0.00,0.00
-1.00,4.84,0.11,0.00
-1.00,4.61,-0.03,-0.00
-1.00,4.54,0.04,0.00
-1.00,4.22,-0.08,-0.00
-1.00,4.12,0.03,0.00
-1.00,3.76,-0.09,-0.00
-1.00,3.71,0.06,0.00
-1.00,3.42,-0.07,-0.00
-1.00,3.36,0.04,0.00
-1.00,3.16,-0.04,-0.00
-1.00,3.18,0.05,0.00
-1.00,3.00,-0.06,-0.00
-1.00,3.07,0.06,0.00
-1.00,2.94,-0.05,-0.00
-1.00,3.03,0.06,0.00
-1.00,2.93,-0.04,-0.00
-1.00,3.05,0.06,0.00
-1.00,2.94,-0.06,-0.00
-1.00,3.04,0.06,0.00
-1.00,2.91,-0.05,-0.00
-1.00,2.93,0.04,0.00
-1.00,2.73,-0.04,-0.00
-1.00,2.75,0.07,0.00
-1.00,2.60,-0.03,-0.00
-1.00,2.64,0.04,0.00
-1.00,2.41,-0.09,-0.00
-1.00,2.45,0.06,0.00
-1.00,2.35,-0.03,-0.00
-1.00,2.50,0.05,0.00
-1.00,2.42,-0.08,-0.00
-1.00,2.56,0.03,0.00
-1.00,2.46,-0.06,-0.00
-1.00,2.56,0.06,0.00
-1.00,2.44,-0.03,-0.00
-1.00,2.55,0.08,0.00
-1.00,2.42,-0.05,-0.00
-1.00,2.53,0.06,0.00
-1.00,2.42,-0.06,-0.00
-1.00,2.43,0.01,0.00
-1.00,2.32,-0.03,-0.00
-1.00,2.45,0.07,0.00
-1.00,2.39,-0.06,-0.00
-1.00,2.57,0.04,0.00
-1.00,2.51,-0.08,-0.00
-1.00,2.64,0.03,0.00
-1.00,2.52,-0.05,-0.00
-1.00,2.65,0.09,0.00
-1.00,2.51,-0.04,-0.00
-1.00,2.61,0.07,0.00
-1.00,2.50,-0.05,-0.00
-1.00,2.58,0.04,0.00
-1.00,2.36,-0.08,-0.00
-1.00,2.37,0.06,0.00
-1.00,2.16,-0.04,-0.00
-1.00,2.14,0.06,0.00
-1.00,1.96,-0.04,-0.00
-1.00,1.96,0.04,0.00
-1.00,1.78,-0.06,-0.00
-1.00,1.96,0.09,0.00
-1.00,2.42,0.06,0.00
-1.00,2.86,-0.10,-0.00
-1.00,2.50,-0.35,-0.04
-1.00,1.83,-0.07,-0.00
-1.00,1.38,0.31,0.03
-1.00,1.47,0.42,0.07
-1.00,1.43,-0.00,-0.00
-1.00,1.56,-0.12,-0.00
-1.00,1.50,-0.25,-0.02
-1.00,1.65,-0.06,-0.00
-1.00,1.60,-0.08,-0.00
-1.00,1.76,0.09,0.00
-1.00,1.73,0.01,0.00
-1.00,1.88,0.09,0.00
-1.00,1.81,-0.02,-0.00
-1.00,1.95,0.07,0.00
-1.00,1.86,-0.05,-0.00
-1.00,2.00,0.05,0.00
-1.00,1.95,-0.06,-0.00
-1.00,2.11,0.04,0.00
-1.00,2.05,-0.07,-0.00
-1.00,2.20,0.04,0.00
-1.00,2.16,-0.05,-0.00
-1.00,2.32,0.05,0.00
-1.00,2.19,-0.07,-0.00
-1.00,2.28,0.06,0.00
-1.00,2.13,-0.04,-0.00
-1.00,2.17,0.07,0.00
-1.00,1.98,-0.05,-0.00
-1.00,2.05,0.07,0.00
-1.00,1.90,-0.06,-0.00
-1.00,1.98,0.04,0.00
-1.00,1.86,-0.06,-0.00
-1.00,1.95,0.04,0.00
-1.00,1.82,-0.06,-0.00
-1.00,1.94,0.07,0.00
-1.00,1.78,-0.06,-0.00
-1.00,1.89,0.07,0.00
-1.00,1.78,-0.05,-0.00
-1.00,1.89,0.05,0.00
-1.00,1.77,-0.06,-0.00
-1.00,1.90,0.06,0.00
-1.00,1.80,-0.06,-0.00
-1.00,1.94,0.06,0.00
-1.00,1.86,-0.06,-0.00
-1.00,2.00,0.05,0.00
-1.00,1.92,-0.06,-0.00
-1.00,2.03,0.05,0.00
-1.00,1.92,-0.05,-0.00
-1.00,2.01,0.06,0.00
-1.00,1.86,-0.05,-0.00
-1.00,1.92,0.06,0.00
-1.00,1.76,-0.05,-0.00
-1.00,1.81,0.06,0.00
-1.00,1.66,-0.05,-0.00
-1.00,1.72,0.05,0.00
-1.00,1.61,-0.05,-0.00
-1.00,1.71,0.04,0.00
-1.00,1.53,-0.08,-0.00
-1.00,1.57,0.05,0.00
-1.00,1.49,-0.01,-0.00
-1.00,1.63,0.07,0.00
-1.00,1.58,-0.06,-0.00
-1.00,1.68,0.01,0.00
-1.00,1.60,-0.05,-0.00
-1.00,1.68,0.05,0.00
-1.00,1.58,-0.03,-0.00
-1.00,1.67,0.06,0.00
-1.00,1.58,-0.03,-0.00
-1.00,1.65,0.04,0.00
-1.00,1.59,-0.04,-0.00
-1.00,1.55,-0.01,-0.00
-1.00,1.46,-0.01,-0.00
-1.00,1.53,0.06,0.00
-1.00,1.43,-0.05,-0.00
-1.00,1.49,0.02,0.00
-1.00,1.41,-0.04,-0.00
-1.00,1.49,0.04,0.00
-1.00,1.50,-0.02,-0.00
-1.00,1.64,0.02,0.00
-1.00,1.69,-0.04,-0.00
-1.00,1.86,0.02,0.00
-1.00,1.87,-0.05,-0.00
-1.00,1.97,0.03,0.00
-1.00,1.91,-0.02,-0.00
-1.00,2.25,0.14,0.00
-1.00,2.80,0.06,0.00
-1.00,2.97,-0.20,-0.01
-1.00,2.41,-0.30,-0.03
-1.00,1.85,0.09,0.00
-1.00,1.66,0.36,0.05
-1.00,1.77,0.25,0.02
-1.00,1.72,-0.12,-0.00
-1.00,1.77,-0.16,-0.00
-1.00,1.68,-0.18,-0.01
-1.00,1.73,-0.02,-0.00
-1.00,1.63,-0.02,-0.00
-1.00,1.65,0.08,0.00
-1.00,1.56,0.03,0.00
-1.00,1.65,0.08,0.00
-1.00,1.57,-0.03,-0.00
-1.00,1.69,0.04,0.00
-1.00,1.66,-0.05,-0.00
-1.00,1.75,0.01,0.00
-1.00,1.72,-0.04,-0.00
-1.00,1.86,0.05,0.00
-1.00,1.86,-0.03,-0.00
-1.00,2.01,0.03,0.00
-1.00,2.03,-0.04,-0.00
-1.00,2.15,0.02,0.00
-1.00,2.10,-0.04,-0.00
-1.00,2.15,0.04,0.00
-1.00,2.03,-0.02,-0.00
-1.00,2.03,0.05,0.00
-1.00,1.89,-0.02,-0.00
-1.00,1.88,0.04,0.00
-1.00,1.80,-0.02,-0.00
-1.00,1.87,0.02,0.00
-1.00,1.79,-0.06,-0.00
-1.00,1.88,0.02,0.00
-1.00,1.76,-0.06,-0.00
-1.00,1.85,0.06,0.00
-1.00,1.82,-0.01,-0.00
-1.00,1.94,0.04,0.00
-1.00,1.91,-0.05,-0.00
-1.00,1.97,0.02,0.00
-1.00,1.88,-0.04,-0.00
-1.00,1.96,0.06,0.00
-1.00,1.92,-0.02,-0.00
-1.00,2.03,0.04,0.00
-1.00,1.92,-0.07,-0.00
-1.00,1.97,0.04,0.00
-1.00,1.88,-0.03,-0.00
-1.00,1.96,0.05,0.00
-1.00,1.86,-0.04,-0.00
-1.00,1.93,0.03,0.00
-1.00,1.83,-0.05,-0.00
-1.00,1.85,0.03,0.00
-1.00,1.72,-0.03,-0.00
-1.00,1.78,0.06,0.00
-1.00,1.65,-0.05,-0.00
-1.00,1.65,0.03,0.00
-1.00,1.56,-0.02,-0.00
-1.00,1.59,0.03,0.00
-1.00,1.51,-0.03,-0.00
-1.00,1.59,0.04,0.00
-1.00,1.57,-0.04,-0.00
-1.00,1.73,0.03,0.00
-1.00,1.72,-0.06,-0.00
-1.00,1.87,0.03,0.00
-1.00,1.81,-0.05,-0.00
-1.00,1.87,0.04,0.00
-1.00,1.81,0.00,0.00
-1.00,1.92,0.07,0.00
-1.00,1.87,-0.04,-0.00
-1.00,1.96,0.02,0.00
-1.00,1.89,-0.06,-0.00
-1.00,1.96,0.03,0.00
-1.00,1.84,-0.04,-0.00
-1.00,1.93,0.06,0.00
-1.00,1.92,-0.01,-0.00
-1.00,2.03,0.02,0.00
-1.00,1.96,-0.07,-0.00
-1.00,2.03,0.03,0.00
-1.00,1.92,-0.03,-0.00
-1.00,1.96,0.06,0.00
-1.00,1.86,-0.02,-0.00
-1.00,2.00,0.07,0.00
-1.00,2.05,-0.03,-0.00
-1.00,2.16,-0.02,-0.00
-1.00,2.08,-0.08,-0.00
-1.00,2.14,0.04,0.00
-1.00,2.44,0.10,0.00
-1.00,3.15,0.11,0.00
-1.00,3.12,-0.31,-0.03
-1.00,2.59,-0.23,-0.01
-1.00,1.99,0.13,0.00
-1.00,2.10,0.47,0.10
-1.00,2.08,0.09,0.00
-1.00,2.17,-0.09,-0.00
-1.00,2.04,-0.24,-0.01
-1.00,2.07,-0.08,-0.00
-1.00,1.84,-0.09,-0.00
-1.00,1.92,0.12,0.00
-1.00,1.84,0.02,0.00
-1.00,1.99,0.08,0.00
-1.00,1.86,-0.09,-0.00
-1.00,1.92,0.04,0.00
-1.00,1.75,-0.04,-0.00
-1.00,1.80,0.07,0.00
-1.00,1.66,-0.03,-0.00
-1.00,1.75,0.06,0.00
-1.00,1.67,-0.06,-0.00
-1.00,1.80,0.03,0.00
-1.00,1.73,-0.07,-0.00
-1.00,1.86,0.04,0.00
-1.00,1.81,-0.05,-0.00
-1.00,1.93,0.04,0.00
-1.00,1.82,-0.05,-0.00
-1.00,1.90,0.06,0.00
-1.00,1.75,-0.04,-0.00
-1.00,1.78,0.06,0.00
-1.00,1.61,-0.04,-0.00
-1.00,1.65,0.06,0.00
-1.00,1.52,-0.05,-0.00
-1.00,1.55,0.03,0.00
-1.00,1.45,-0.05,-0.00
-1.00,1.52,0.03,0.00
-1.00,1.42,-0.05,-0.00
-1.00,1.52,0.05,0.00
-1.00,1.44,-0.05,-0.00
-1.00,1.56,0.05,0.00
-1.00,1.47,-0.06,-0.00
-1.00,1.61,0.06,0.00
-1.00,1.57,-0.04,-0.00
-1.00,1.72,0.04,0.00
-1.00,1.68,-0.05,-0.00
-1.00,1.75,0.03,0.00
-1.00,1.67,-0.03,-0.00
-1.00,1.80,0.07,0.00
-1.00,1.72,-0.05,-0.00
-1.00,1.80,0.04,0.00
-1.00,1.71,-0.05,-0.00
-1.00,1.82,0.05,0.00
-1.00,1.73,-0.05,-0.00
-1.00,1.81,0.04,0.00
-1.00,1.71,-0.04,-0.00
-1.00,1.83,0.06,0.00
-1.00,1.74,-0.06,-0.00
-1.00,1.83,0.04,0.00
-1.00,1.72,-0.05,-0.00
-1.00,1.83,0.06,0.00
-1.00,1.74,-0.05,-0.00
-1.00,1.85,0.05,0.00
-1.00,1.72,-0.07,-0.00
-1.00,1.83,0.06,0.00
-1.00,1.71,-0.05,-0.00
-1.00,1.83,0.06,0.00
-1.00,1.73,-0.06,-0.00
-1.00,1.81,0.04,0.00
-1.00,1.73,-0.04,-0.00
-1.00,1.86,0.06,0.00
-1.00,1.76,-0.06,-0.00
-1.00,1.85,0.04,0.00
-1.00,1.82,-0.03,-0.00
-1.00,1.93,0.04,0.00
-1.00,1.83,-0.06,-0.00
-1.00,1.91,0.05,0.00
-1.00,1.78,-0.04,-0.00
-1.00,1.85,0.06,0.00
-1.00,1.75,-0.03,-0.00
-1.00,1.86,0.05,0.00
-1.00,1.75,-0.07,-0.00
-1.00,1.84,0.04,0.00
-1.00,1.71,-0.06,-0.00
-1.00,1.84,0.07,0.00
-1.00,2.32,0.11,0.00
-1.00,2.86,-0.05,-0.00
-1.00,2.58,-0.36,-0.05
-1.00,1.81,-0.15,-0.00
-1.00,1.33,0.32,0.03
-1.00,1.51,0.47,0.10
-1.00,1.52,-0.00,-0.00
-1.00,1.67,-0.16,-0.00
-1.00,1.63,-0.26,-0.02
-1.00,1.79,-0.07,-0.00
-1.00,1.74,-0.07,-0.00
-1.00,1.88,0.10,0.00
-1.00,1.83,0.02,0.00
-1.00,1.99,0.11,0.00
-1.00,1.94,-0.03,-0.00
-1.00,2.10,0.06,0.00
-1.00,2.03,-0.06,-0.00
-1.00,2.13,0.03,0.00
-1.00,1.99,-0.07,-0.00
-1.00,2.12,0.08,0.00
-1.00,2.05,-0.04,-0.00
-1.00,2.18,0.04,0.00
-1.00,2.08,-0.07,-0.00
-1.00,2.19,0.04,0.00
-1.00,2.02,-0.07,-0.00
-1.00,2.12,0.08,0.00
-1.00,1.96,-0.04,-0.00
-1.00,1.98,0.05,0.00
-1.00,1.78,-0.05,-0.00
-1.00,1.74,0.05,0.00
-1.00,1.56,-0.02,-0.00
-1.00,1.60,0.06,0.00
-1.00,1.45,-0.06,-0.00
-1.00,1.55,0.04,0.00
-1.00,1.50,-0.06,-0.00
-1.00,1.63,0.03,0.00
-1.00,1.55,-0.07,-0.00
-1.00,1.68,0.05,0.00
-1.00,1.62,-0.03,-0.00
-1.00,1.77,0.07,0.00
-1.00,1.66,-0.06,-0.00
-1.00,1.77,0.06,0.00
-1.00,1.70,-0.04,-0.00
-1.00,1.79,0.04,0.00
-1.00,1.68,-0.06,-0.00
-1.00,1.78,0.05,0.00
-1.00,1.67,-0.05,-0.00
-1.00,1.77,0.05,0.00
-1.00,1.62,-0.07,-0.00
-1.00,1.71,0.06,0.00
-1.00,1.62,-0.03,-0.00
-1.00,1.76,0.06,0.00
-1.00,1.69,-0.07,-0.00
-1.00,1.83,0.04,0.00
-1.00,1.79,-0.05,-0.00
-1.00,1.91,0.04,0.00
-1.00,1.83,-0.04,-0.00
-1.00,1.94,0.06,0.00
-1.00,1.84,-0.04,-0.00
-1.00,1.96,0.06,0.00
-1.00,1.84,-0.06,-0.00
-1.00,1.94,0.05,0.00
-1.00,1.81,-0.06,-0.00
-1.00,1.91,0.05,0.00
-1.00,1.81,-0.05,-0.00
-1.00,1.92,0.04,0.00
-1.00,1.81,-0.06,-0.00
-1.00,1.89,0.04,0.00
-1.00,1.75,-0.05,-0.00
-1.00,1.82,0.06,0.00
-1.00,1.74,-0.03,-0.00
-1.00,1.84,0.05,0.00
-1.00,1.75,-0.06,-0.00
-1.00,1.86,0.04,0.00
-1.00,1.73,-0.07,-0.00
-1.00,1.79,0.05,0.00
-1.00,1.94,0.05,0.00
-1.00,2.67,0.14,0.00
-1.00,2.59,-0.33,-0.03
-1.00,2.07,-0.22,-0.01
-1.00,1.37,0.09,0.00
-1.00,1.48,0.50,0.12
-1.00,1.55,0.13,0.00
-1.00,1.75,-0.10,-0.00
-1.00,1.70,-0.28,-0.02
-1.00,1.81,-0.10,-0.00
-1.00,1.73,-0.07,-0.00
-1.00,1.85,0.10,0.00
-1.00,1.76,0.02,0.00
-1.00,1.89,0.11,0.00
-1.00,1.82,-0.02,-0.00
-1.00,1.95,0.05,0.00
-1.00,1.87,-0.07,-0.00
-1.00,1.99,0.03,0.00
-1.00,1.91,-0.06,-0.00
-1.00,2.04,0.05,0.00
-1.00,2.00,-0.04,-0.00
-1.00,2.14,0.04,0.00
-1.00,2.05,-0.06,-0.00
-1.00,2.14,0.05,0.00
-1.00,2.02,-0.04,-0.00
-1.00,2.10,0.07,0.00
-1.00,1.94,-0.05,-0.00
-1.00,1.96,0.05,0.00
-1.00,1.79,-0.04,-0.00
-1.00,1.79,0.05,0.00
-1.00,1.64,-0.04,-0.00
-1.00,1.69,0.04,0.00
-1.00,1.56,-0.06,-0.00
-1.00,1.64,0.04,0.00
-1.00,1.50,-0.06,-0.00
-1.00,1.60,0.06,0.00
-1.00,1.58,-0.02,-0.00
-1.00,1.72,0.03,0.00
-1.00,1.62,-0.07,-0.00
-1.00,1.71,0.05,0.00
-1.00,1.63,-0.02,-0.00
-1.00,1.77,0.07,0.00
-1.00,1.69,-0.05,-0.00
-1.00,1.80,0.04,0.00
-1.00,1.73,-0.05,-0.00
-1.00,1.82,0.04,0.00
-1.00,1.72,-0.05,-0.00
-1.00,1.83,0.06,0.00
-1.00,1.74,-0.05,-0.00
-1.00,1.85,0.05,0.00
-1.00,1.74,-0.06,-0.00
-1.00,1.83,0.05,0.00
-1.00,1.72,-0.05,-0.00
-1.00,1.83,0.06,0.00
-1.00,1.73,-0.06,-0.00
-1.00,1.81,0.04,0.00
-1.00,1.73,-0.04,-0.00
-1.00,1.85,0.05,0.00
-1.00,1.76,-0.06,-0.00
-1.00,1.87,0.04,0.00
-1.00,1.76,-0.05,-0.00
-1.00,1.87,0.06,0.00
-1.00,1.79,-0.04,-0.00
-1.00,1.94,0.06,0.00
-1.00,1.82,-0.08,-0.00
-1.00,1.87,0.04,0.00
-1.00,1.76,-0.03,-0.00
-1.00,1.83,0.06,0.00
-1.00,1.72,-0.04,-0.00
-1.00,1.82,0.05,0.00
-1.00,1.72,-0.06,-0.00
-1.00,1.83,0.04,0.00
-1.00,1.73,-0.06,-0.00
-1.00,1.81,0.04,0.00
-1.00,1.68,-0.05,-0.00
-1.00,2.20,0.19,0.01
-1.00,2.62,-0.05,-0.00
-1.00,2.68,-0.23,-0.01
-1.00,1.93,-0.28,-0.02
-1.00,1.52,0.26,0.02
-1.00,1.44,0.37,0.05
-1.00,1.63,0.17,0.01
-1.00,1.57,-0.20,-0.01
-1.00,1.73,-0.14,-0.00
-1.00,1.63,-0.19,-0.01
-1.00,1.76,0.02,0.00
-1.00,1.67,-0.02,-0.00
-1.00,1.81,0.12,0.00
-1.00,1.75,0.00,0.00
-1.00,1.89,0.07,0.00
-1.00,1.81,-0.05,-0.00
-1.00,1.95,0.05,0.00
-1.00,1.88,-0.06,-0.00
-1.00,2.00,0.04,0.00
-1.00,1.95,-0.05,-0.00
-1.00,2.03,0.02,0.00
-1.00,1.95,-0.04,-0.00
-1.00,2.09,0.07,0.00
-1.00,2.05,-0.04,-0.00
-1.00,2.13,0.02,0.00
-1.00,2.01,-0.06,-0.00
-1.00,2.04,0.05,0.00
-1.00,1.83,-0.04,-0.00
-1.00,1.82,0.07,0.00
-1.00,1.61,-0.03,-0.00
-1.00,1.62,0.06,0.00
-1.00,1.47,-0.05,-0.00
-1.00,1.57,0.04,0.00
-1.00,1.50,-0.07,-0.00
-1.00,1.64,0.02,0.00
-1.00,1.53,-0.08,-0.00
-1.00,1.64,0.06,0.00
-1.00,1.55,-0.03,-0.00
-1.00,1.68,0.07,0.00
-1.00,1.60,-0.04,-0.00
-1.00,1.72,0.05,0.00
-1.00,1.65,-0.05,-0.00
-1.00,1.77,0.04,0.00
-1.00,1.67,-0.06,-0.00
-1.00,1.78,0.05,0.00
-1.00,1.68,-0.05,-0.00
-1.00,1.79,0.06,0.00
-1.00,1.69,-0.05,-0.00
-1.00,1.78,0.04,0.00
-1.00,1.70,-0.05,-0.00
-1.00,1.79,0.04,0.00
-1.00,1.61,-0.07,-0.00
-1.00,1.71,0.08,0.00
-1.00,1.62,-0.03,-0.00
-1.00,1.74,0.05,0.00
-1.00,1.64,-0.07,-0.00
-1.00,1.75,0.04,0.00
-1.00,1.69,-0.05,-0.00
-1.00,1.81,0.05,0.00
-1.00,1.74,-0.05,-0.00
-1.00,1.87,0.05,0.00
-1.00,1.76,-0.06,-0.00
-1.00,1.87,0.06,0.00
-1.00,1.75,-0.05,-0.00
-1.00,1.85,0.06,0.00
-1.00,1.80,-0.03,-0.00
-1.00,1.93,0.03,0.00
-1.00,1.81,-0.08,-0.00
-1.00,1.90,0.04,0.00
-1.00,1.77,-0.04,-0.00
-1.00,1.86,0.06,0.00
-1.00,1.72,-0.05,-0.00
-1.00,1.82,0.07,0.00
-1.00,1.73,-0.05,-0.00
-1.00,1.83,0.04,0.00
-1.00,1.74,-0.06,-0.00
-1.00,1.77,0.03,0.00
-1.00,1.89,0.04,0.00
-1.00,2.64,0.17,0.00
-1.00,2.73,-0.28,-0.02
-1.00,2.33,-0.26,-0.02
-1.00,1.52,-0.02,-0.00
-1.00,1.43,0.48,0.11
-1.00,1.44,0.24,0.01
-1.00,1.62,-0.02,-0.00
-1.00,1.58,-0.27,-0.02
-1.00,1.73,-0.13,-0.00
-1.00,1.64,-0.14,-0.00
-1.00,1.74,0.06,0.00
-1.00,1.66,0.02,0.00
-1.00,1.79,0.13,0.00
-1.00,1.73,-0.00,-0.00
-1.00,1.88,0.07,0.00
-1.00,1.82,-0.06,-0.00
-1.00,1.96,0.03,0.00
-1.00,1.89,-0.07,-0.00
-1.00,2.03,0.05,0.00
-1.00,1.97,-0.05,-0.00
-1.00,2.09,0.05,0.00
-1.00,2.01,-0.05,-0.00
-1.00,2.12,0.05,0.00
-1.00,2.03,-0.04,-0.00
-1.00,2.09,0.04,0.00
-1.00,1.93,-0.05,-0.00
-1.00,1.94,0.06,0.00
-1.00,1.73,-0.04,-0.00
-1.00,1.72,0.06,0.00
-1.00,1.56,-0.03,-0.00
-1.00,1.57,0.03,0.00
-1.00,1.47,-0.04,-0.00
-1.00,1.56,0.03,0.00
-1.00,1.47,-0.07,-0.00
-1.00,1.54,0.03,0.00
-1.00,1.46,-0.04,-0.00
-1.00,1.59,0.07,0.00
-1.00,1.52,-0.05,-0.00
-1.00,1.65,0.05,0.00
-1.00,1.59,-0.05,-0.00
-1.00,1.70,0.04,0.00
-1.00,1.62,-0.04,-0.00
-1.00,1.73,0.05,0.00
-1.00,1.64,-0.05,-0.00
-1.00,1.74,0.05,0.00
-1.00,1.66,-0.05,-0.00
-1.00,1.77,0.05,0.00
-1.00,1.67,-0.06,-0.00
-1.00,1.76,0.04,0.00
-1.00,1.65,-0.05,-0.00
-1.00,1.74,0.06,0.00
-1.00,1.64,-0.05,-0.00
-1.00,1.74,0.05,0.00
-1.00,1.64,-0.05,-0.00
-1.00,1.75,0.05,0.00
-1.00,1.65,-0.06,-0.00
-1.00,1.74,0.05,0.00
-1.00,1.66,-0.04,-0.00
-1.00,1.77,0.05,0.00
-1.00,1.69,-0.05,-0.00
-1.00,1.84,0.06,0.00
-1.00,1.74,-0.07,-0.00
-1.00,1.85,0.05,0.00
-1.00,1.76,-0.04,-0.00
-1.00,1.85,0.05,0.00
-1.00,1.71,-0.05,-0.00
-1.00,1.78,0.06,0.00
-1.00,1.72,-0.03,-0.00
-1.00,1.89,0.05,0.00
-1.00,1.85,-0.08,-0.00
-1.00,1.96,0.01,0.00
-1.00,1.84,-0.06,-0.00
-1.00,1.88,0.05,0.00
-1.00,1.74,-0.01,-0.00
-1.00,1.84,0.09,0.00
-1.00,1.74,-0.05,-0.00
-1.00,1.82,0.03,0.00
-1.00,1.73,-0.06,-0.00
-1.00,1.83,0.04,0.00
-1.00,1.66,-0.08,-0.00
-1.00,1.93,0.12,0.00
-1.00,2.50,0.10,0.00
-1.00,2.83,-0.16,-0.00
-1.00,2.29,-0.36,-0.05
-1.00,1.64,0.03,0.00
-1.00,1.39,0.39,0.06
-1.00,1.60,0.35,0.04
-1.00,1.58,-0.11,-0.00
-1.00,1.71,-0.17,-0.01
-1.00,1.64,-0.22,-0.01
-1.00,1.78,-0.02,-0.00
-1.00,1.70,-0.05,-0.00
-1.00,1.82,0.11,0.00
-1.00,1.74,0.01,0.00
-1.00,1.88,0.10,0.00
-1.00,1.79,-0.04,-0.00
-1.00,1.88,0.04,0.00
-1.00,1.83,-0.04,-0.00
-1.00,1.99,0.05,0.00
-1.00,1.96,-0.07,-0.00
-1.00,2.09,0.02,0.00
-1.00,2.01,-0.06,-0.00
-1.00,2.13,0.06,0.00
-1.00,2.05,-0.04,-0.00
-1.00,2.16,0.06,0.00
-1.00,2.04,-0.05,-0.00
-1.00,2.09,0.05,0.00
-1.00,1.92,-0.05,-0.00
-1.00,1.90,0.05,0.00
-1.00,1.69,-0.04,-0.00
-1.00,1.70,0.07,0.00
-1.00,1.53,-0.04,-0.00
-1.00,1.60,0.04,0.00
-1.00,1.52,-0.05,-0.00
-1.00,1.61,0.01,0.00
-1.00,1.52,-0.07,-0.00
-1.00,1.64,0.05,0.00
-1.00,1.55,-0.04,-0.00
-1.00,1.68,0.06,0.00
-1.00,1.61,-0.04,-0.00
-1.00,1.70,0.04,0.00
-1.00,1.62,-0.04,-0.00
-1.00,1.73,0.05,0.00
-1.00,1.64,-0.05,-0.00
-1.00,1.76,0.05,0.00
-1.00,1.67,-0.06,-0.00
-1.00,1.74,0.03,0.00
-1.00,1.59,-0.05,-0.00
-1.00,1.73,0.09,0.00
-1.00,1.65,-0.05,-0.00
-1.00,1.76,0.04,0.00
-1.00,1.64,-0.08,-0.00
-1.00,1.74,0.06,0.00
-1.00,1.65,-0.04,-0.00
-1.00,1.73,0.05,0.00
-1.00,1.64,-0.04,-0.00
-1.00,1.76,0.05,0.00
-1.00,1.68,-0.05,-0.00
-1.00,1.80,0.04,0.00
-1.00,1.71,-0.06,-0.00
-1.00,1.81,0.05,0.00
-1.00,1.72,-0.04,-0.00
-1.00,1.83,0.06,0.00
-1.00,1.74,-0.05,-0.00
-1.00,1.84,0.05,0.00
-1.00,1.75,-0.05,-0.00
-1.00,1.84,0.04,0.00
-1.00,1.72,-0.05,-0.00
-1.00,1.84,0.06,0.00
-1.00,1.74,-0.05,-0.00
-1.00,1.86,0.05,0.00
-1.00,1.80,-0.05,-0.00
-1.00,1.93,0.04,0.00
-1.00,1.82,-0.07,-0.00
-1.00,1.90,0.05,0.00
-1.00,1.75,-0.04,-0.00
-1.00,1.85,0.08,0.00
-1.00,1.70,-0.05,-0.00
-1.00,1.79,0.06,0.00
-1.00,1.72,-0.05,-0.00
-1.00,1.86,0.04,0.00
-1.00,1.75,-0.09,-0.00
-1.00,1.82,0.03,0.00
-1.00,2.02,0.06,0.00
-1.00,2.79,0.15,0.00
-1.00,2.75,-0.33,-0.04
-1.00,2.21,-0.24,-0.01
-1.00,1.44,0.08,0.00
-1.00,1.51,0.53,0.15
-1.00,1.55,0.15,0.00
-1.00,1.72,-0.10,-0.00
-1.00,1.68,-0.28,-0.02
-1.00,1.77,-0.13,-0.00
-1.00,1.68,-0.09,-0.00
-1.00,1.79,0.09,0.00
-1.00,1.70,0.02,0.00
-1.00,1.83,0.12,0.00
-1.00,1.75,-0.02,-0.00
-1.00,1.89,0.06,0.00
-1.00,1.81,-0.06,-0.00
-1.00,1.96,0.04,0.00
-1.00,1.90,-0.06,-0.00
-1.00,2.03,0.04,0.00
-1.00,1.96,-0.05,-0.00
-1.00,2.08,0.05,0.00
-1.00,2.00,-0.05,-0.00
-1.00,2.10,0.05,0.00
-1.00,1.99,-0.05,-0.00
-1.00,2.01,0.04,0.00
-1.00,1.87,-0.03,-0.00
-1.00,1.92,0.06,0.00
-1.00,1.75,-0.06,-0.00
-1.00,1.77,0.04,0.00
-1.00,1.59,-0.05,-0.00
-1.00,1.62,0.05,0.00
-1.00,1.49,-0.04,-0.00
-1.00,1.58,0.05,0.00
-1.00,1.50,-0.06,-0.00
-1.00,1.60,0.03,0.00
-1.00,1.53,-0.05,-0.00
-1.00,1.67,0.05,0.00
-1.00,1.58,-0.05,-0.00
-1.00,1.71,0.06,0.00
-1.00,1.62,-0.05,-0.00
-1.00,1.75,0.06,0.00
-1.00,1.69,-0.05,-0.00
-1.00,1.80,0.04,0.00
-1.00,1.73,-0.05,-0.00
-1.00,1.82,0.04,0.00
-1.00,1.71,-0.05,-0.00
-1.00,1.76,0.05,0.00
-1.00,1.58,-0.05,-0.00
-1.00,1.62,0.07,0.00
-1.00,1.49,-0.03,-0.00
-1.00,1.57,0.05,0.00
-1.00,1.51,-0.05,-0.00
-1.00,1.60,0.02,0.00
-1.00,1.52,-0.06,-0.00
-1.00,1.63,0.04,0.00
-1.00,1.52,-0.05,-0.00
-1.00,1.66,0.08,0.00
-1.00,1.67,-0.02,-0.00
-1.00,1.82,0.03,0.00
-1.00,1.76,-0.07,-0.00
-1.00,1.88,0.04,0.00
-1.00,1.80,-0.04,-0.00
-1.00,1.92,0.07,0.00
-1.00,1.82,-0.04,-0.00
-1.00,1.92,0.05,0.00
-1.00,1.83,-0.05,-0.00
-1.00,1.97,0.06,0.00
-1.00,1.89,-0.07,-0.00
-1.00,1.98,0.03,0.00
-1.00,1.83,-0.06,-0.00
-1.00,1.89,0.07,0.00
-1.00,1.74,-0.03,-0.00
-1.00,1.84,0.07,0.00
-1.00,1.74,-0.05,-0.00
-1.00,1.85,0.04,0.00
-1.00,1.76,-0.07,-0.00
-1.00,1.86,0.03,0.00
-1.00,1.75,-0.05,-0.00
-1.00,2.04,0.12,0.00
-1.00,2.58,0.07,0.00
-1.00,2.69,-0.21,-0.01
-1.00,2.02,-0.31,-0.03
-1.00,1.52,0.16,0.00
-1.00,1.40,0.38,0.05
-1.00,1.64,0.23,0.01
-1.00,1.58,-0.19,-0.01
-1.00,1.69,-0.16,-0.00
-1.00,1.63,-0.17,-0.00
-1.00,1.76,0.01,0.00
-1.00,1.70,-0.02,-0.00
-1.00,1.84,0.10,0.00
-1.00,1.76,-0.01,-0.00
-1.00,1.90,0.09,0.00
-1.00,1.80,-0.04,-0.00
-1.00,1.93,0.06,0.00
-1.00,1.86,-0.05,-0.00
-1.00,2.00,0.04,0.00
-1.00,1.95,-0.06,-0.00
-1.00,2.11,0.04,0.00
-1.00,2.02,-0.07,-0.00
-1.00,2.12,0.05,0.00
-1.00,1.99,-0.04,-0.00
-1.00,2.07,0.07,0.00
-1.00,1.95,-0.03,-0.00
-1.00,2.00,0.05,0.00
-1.00,1.82,-0.06,-0.00
-1.00,1.82,0.05,0.00
-1.00,1.62,-0.04,-0.00
-1.00,1.64,0.06,0.00
-1.00,1.47,-0.04,-0.00
-1.00,1.54,0.05,0.00
-1.00,1.44,-0.06,-0.00
-1.00,1.54,0.03,0.00
-1.00,1.45,-0.06,-0.00
-1.00,1.59,0.05,0.00
-1.00,1.52,-0.05,-0.00
-1.00,1.60,0.04,0.00
-1.00,1.48,-0.04,-0.00
-1.00,1.62,0.09,0.00
-1.00,1.57,-0.04,-0.00
-1.00,1.74,0.04,0.00
-1.00,1.66,-0.08,-0.00
-1.00,1.77,0.03,0.00
-1.00,1.67,-0.05,-0.00
-1.00,1.76,0.07,0.00
-1.00,1.69,-0.03,-0.00
-1.00,1.77,0.04,0.00
-1.00,1.66,-0.05,-0.00
-1.00,1.76,0.05,0.00
-1.00,1.67,-0.05,-0.00
-1.00,1.78,0.05,0.00
-1.00,1.70,-0.06,-0.00
-1.00,1.79,0.04,0.00
-1.00,1.69,-0.05,-0.00
-1.00,1.80,0.06,0.00
-1.00,1.71,-0.05,-0.00
-1.00,1.81,0.05,0.00
-1.00,1.71,-0.05,-0.00
-1.00,1.82,0.05,0.00
-1.00,1.71,-0.06,-0.00
-1.00,1.81,0.05,0.00
-1.00,1.76,-0.03,-0.00
-1.00,1.89,0.04,0.00
-1.00,1.78,-0.07,-0.00
-1.00,1.85,0.04,0.00
-1.00,1.71,-0.04,-0.00
-1.00,1.76,0.07,0.00
-1.00,1.60,-0.04,-0.00
-1.00,1.72,0.08,0.00
-1.00,1.65,-0.05,-0.00
-1.00,1.78,0.02,0.00
-1.00,1.72,-0.07,-0.00
-1.00,1.77,0.01,0.00
-1.00,1.89,0.04,0.00
-1.00,2.64,0.18,0.01
-1.00,2.61,-0.30,-0.03
-1.00,2.19,-0.21,-0.01
-1.00,1.45,0.03,0.00
-1.00,1.47,0.47,0.10
-1.00,1.50,0.17,0.00
-1.00,1.68,-0.06,-0.00
-1.00,1.60,-0.27,-0.02
-1.00,1.76,-0.09,-0.00
-1.00,1.67,-0.12,-0.00
-1.00,1.79,0.08,0.00
-1.00,1.70,0.01,0.00
-1.00,1.84,0.12,0.00
-1.00,1.77,-0.01,-0.00
-1.00,1.91,0.06,0.00
-1.00,1.82,-0.07,-0.00
-1.00,1.96,0.05,0.00
-1.00,1.90,-0.06,-0.00
-1.00,2.02,0.04,0.00
-1.00,1.95,-0.05,-0.00
-1.00,2.06,0.05,0.00
-1.00,1.98,-0.04,-0.00
-1.00,2.09,0.05,0.00
-1.00,1.94,-0.06,-0.00
-1.00,1.96,0.05,0.00
-1.00,1.85,-0.01,-0.00
-1.00,1.89,0.05,0.00
-1.00,1.70,-0.06,-0.00
-1.00,1.72,0.05,0.00
-1.00,1.54,-0.04,-0.00
-1.00,1.58,0.05,0.00
-1.00,1.45,-0.05,-0.00
-1.00,1.53,0.04,0.00
-1.00,1.45,-0.05,-0.00
-1.00,1.56,0.04,0.00
-1.00,1.49,-0.06,-0.00
-1.00,1.63,0.06,0.00
-1.00,1.57,-0.05,-0.00
-1.00,1.69,0.05,0.00
-1.00,1.62,-0.04,-0.00
-1.00,1.75,0.06,0.00
-1.00,1.66,-0.05,-0.00
-1.00,1.78,0.05,0.00
-1.00,1.68,-0.05,-0.00
-1.00,1.82,0.06,0.00
-1.00,1.70,-0.07,-0.00
-1.00,1.78,0.05,0.00
-1.00,1.66,-0.04,-0.00
-1.00,1.77,0.06,0.00
-1.00,1.68,-0.05,-0.00
-1.00,1.77,0.04,0.00
-1.00,1.66,-0.06,-0.00
-1.00,1.76,0.05,0.00
-1.00,1.67,-0.05,-0.00
-1.00,1.73,0.04,0.00
-1.00,1.62,-0.03,-0.00
-1.00,1.76,0.07,0.00
-1.00,1.69,-0.06,-0.00
-1.00,1.80,0.03,0.00
-1.00,1.72,-0.06,-0.00
-1.00,1.82,0.05,0.00
-1.00,1.75,-0.04,-0.00
-1.00,1.90,0.06,0.00
-1.00,1.81,-0.06,-0.00
-1.00,1.90,0.04,0.00
-1.00,1.78,-0.05,-0.00
-1.00,1.85,0.06,0.00
-1.00,1.74,-0.03,-0.00
-1.00,1.83,0.05,0.00
-1.00,1.72,-0.06,-0.00
-1.00,1.81,0.04,0.00
-1.00,1.73,-0.05,-0.00
-1.00,1.80,0.03,0.00
-1.00,1.68,-0.05,-0.00
-1.00,2.23,0.19,0.01
-1.00,2.65,-0.06,-0.00
-1.00,2.65,-0.25,-0.02
-1.00,1.87,-0.26,-0.02
-1.00,1.51,0.30,0.03
-1.00,1.44,0.36,0.05
-1.00,1.64,0.15,0.00
-1.00,1.58,-0.21,-0.01
-1.00,1.69,-0.15,-0.00
-1.00,1.61,-0.16,-0.00
-1.00,1.74,0.03,0.00
-1.00,1.59,-0.04,-0.00
-1.00,1.72,0.13,0.00
-1.00,1.68,0.02,0.00
-1.00,1.83,0.07,0.00
-1.00,1.77,-0.06,-0.00
-1.00,1.90,0.03,0.00
-1.00,1.84,-0.05,-0.00
-1.00,2.00,0.05,0.00
-1.00,1.96,-0.06,-0.00
-1.00,2.05,0.03,0.00
-1.00,1.97,-0.04,-0.00
-1.00,2.06,0.05,0.00
-1.00,1.86,-0.06,-0.00
-1.00,1.77,0.04,0.00
-1.00,1.38,-0.05,-0.00
-1.00,1.12,0.08,0.00
-1.00,0.65,-0.01,-0.00
-1.00,0.34,0.07,0.00
-1.00,0.11,0.03,0.00
-1.00,0.02,-0.01,-0.00
-1.00,0.00,-0.06,-0.00
-1.00,0.00,-0.08,-0.00
-1.00,0.00,-0.06,-0.00
-1.00,0.00,-0.01,-0.00
-1.00,0.00,0.03,0.00
-1.00,0.00,0.05,0.00
-1.00,0.00,0.04,0.00
-1.00,0.00,0.02,0.00
-1.00,0.00,0.01,0.00
-1.00,0.00,-0.00,-0.00
-1.00,0.00,-0.01,-0.00
-1.00,0.00,-0.01,-0.00
-1.00,0.00,-0.01,-0.00
-1.00,0.00,-0.00,-0.00
-1.00,0.00,-0.00,-0.00
-1.00,0.00,0.00,0.00
-1.00,0.00,0.00,0.00
-1.00,0.00,0.00,0.00
-1.00,0.00,0.00,0.00
-1.00,0.00,0.00,0.00
-1.00,0.02,0.01,0.00
-1.00,0.00,-0.01,-0.00
-1.00,0.00,0.00,0.00
-1.00,0.08,0.03,0.00
-1.00,0.05,-0.04,-0.00
-1.00,0.27,0.06,0.00
-1.00,0.32,-0.06,-0.00
-1.00,0.56,0.02,0.00
-1.00,0.59,-0.07,-0.00
-1.00,0.82,0.05,0.00
-1.00,0.85,-0.04,-0.00
-1.00,1.06,0.06,0.00
-1.00,1.11,-0.02,-0.00
-1.00,1.35,0.05,0.00
-1.00,1.35,-0.07,-0.00
-1.00,1.52,0.04,0.00
-1.00,1.45,-0.06,-0.00
-1.00,1.61,0.08,0.00
-1.00,1.54,-0.04,-0.00
-1.00,1.74,0.07,0.00
-1.00,1.70,-0.07,-0.00
-1.00,1.86,0.03,0.00
-1.00,1.78,-0.07,-0.00
-1.00,1.93,0.06,0.00
-1.00,1.98,-0.01,-0.00
-1.00,2.80,0.20,0.01
-1.00,3.05,-0.23,-0.01
-1.00,2.87,-0.26,-0.02
-1.00,2.06,-0.13,-0.00
-1.00,1.99,0.46,0.10
-1.00,2.00,0.27,0.02
-1.00,2.27,0.05,0.00
-1.00,2.19,-0.28,-0.02
-1.00,2.33,-0.13,-0.00
-1.00,2.15,-0.15,-0.00
-1.00,2.18,0.07,0.00
-1.00,1.95,0.01,0.00
-1.00,1.99,0.15,0.00
-1.00,1.76,-0.02,-0.00
