Con,Ecg,ecg_filtered,ecg_pow,ecg_pow100
-1.00,1.76,-0.05,-0.00,-0.13
-1.00,1.86,0.04,0.00,0.06
-1.00,1.84,-0.03,-0.00,-0.03
-1.00,1.92,0.02,0.00,0.01
-1.00,1.84,-0.04,-0.00,-0.07
-1.00,1.92,0.05,0.00,0.12
-1.00,1.83,-0.03,-0.00,-0.04
-1.00,1.91,0.05,0.00,0.10
-1.00,1.83,-0.04,-0.00,-0.06
-1.00,1.88,0.03,0.00,0.03
-1.00,1.79,-0.04,-0.00,-0.06
-1.00,1.90,0.05,0.00,0.15
-1.00,1.83,-0.05,-0.00,-0.12
-1.00,1.87,0.01,0.00,0.00
-1.00,1.67,-0.06,-0.00,-0.25
-1.00,1.70,0.08,0.00,0.53
-1.00,1.62,0.00,0.00,0.00
-1.00,1.71,0.04,0.00,0.06
-1.00,1.62,-0.07,-0.00,-0.32
-1.00,1.72,0.02,0.00,0.01
-1.00,1.66,-0.05,-0.00,-0.14
-1.00,1.74,0.03,0.00,0.04
-1.00,1.66,-0.04,-0.00,-0.05
-1.00,2.06,0.14,0.00,2.92
-1.00,2.57,0.02,0.00,0.00
-1.00,2.59,-0.24,-0.01,-14.03
-1.00,1.89,-0.26,-0.02,-17.77
-1.00,1.45,0.22,0.01,10.68
-1.00,1.41,0.38,0.05,54.35
-1.00,1.60,0.16,0.00,4.35
-1.00,1.53,-0.20,-0.01,-8.32
-1.00,1.62,-0.15,-0.00,-3.72
-1.00,1.53,-0.15,-0.00,-3.67
-1.00,1.62,0.02,0.00,0.01
-1.00,1.54,-0.00,-0.00,-0.00
-1.00,1.65,0.10,0.00,0.87
-1.00,1.58,-0.00,-0.00,-0.00
-1.00,1.70,0.07,0.00,0.31
-1.00,1.59,-0.05,-0.00,-0.15
-1.00,1.68,0.05,0.00,0.10
-1.00,1.60,-0.04,-0.00,-0.05
-1.00,1.73,0.05,0.00,0.09
-1.00,1.73,-0.04,-0.00,-0.07
-1.00,1.85,0.01,0.00,0.00
-1.00,1.81,-0.06,-0.00,-0.22
-1.00,1.89,0.03,0.00,0.03
-1.00,1.88,-0.01,-0.00,-0.00
-1.00,1.99,0.04,0.00,0.08
-1.00,1.93,-0.04,-0.00,-0.07
-1.00,1.99,0.03,0.00,0.03
-1.00,1.86,-0.04,-0.00,-0.09
-1.00,1.83,0.04,0.00,0.07
-1.00,1.64,-0.02,-0.00,-0.01
-1.00,1.61,0.06,0.00,0.20
-1.00,1.45,-0.03,-0.00,-0.02
-1.00,1.46,0.04,0.00,0.05
-1.00,1.36,-0.05,-0.00,-0.11
-1.00,1.45,0.02,0.00,0.01
-1.00,1.37,-0.07,-0.00,-0.34
-1.00,1.46,0.03,0.00,0.03
-1.00,1.40,-0.04,-0.00,-0.05
-1.00,1.51,0.05,0.00,0.14
-1.00,1.46,-0.03,-0.00,-0.02
-1.00,1.56,0.05,0.00,0.09
-1.00,1.49,-0.04,-0.00,-0.06
-1.00,1.61,0.05,0.00,0.14
-1.00,1.55,-0.04,-0.00,-0.07
-1.00,1.67,0.04,0.00,0.05
-1.00,1.60,-0.05,-0.00,-0.13
-1.00,1.69,0.04,0.00,0.05
-1.00,1.59,-0.04,-0.00,-0.08
-1.00,1.66,0.05,0.00,0.11
-1.00,1.56,-0.03,-0.00,-0.03
-1.00,1.64,0.05,0.00,0.10
-1.00,1.57,-0.04,-0.00,-0.06
-1.00,1.60,0.01,0.00,0.00
-1.00,1.51,-0.03,-0.00,-0.03
-1.00,1.64,0.06,0.00,0.25
-1.00,1.57,-0.06,-0.00,-0.17
-1.00,1.67,0.03,0.00,0.02
-1.00,1.61,-0.05,-0.00,-0.10
-1.00,1.70,0.04,0.00,0.06
-1.00,1.62,-0.04,-0.00,-0.04
-1.00,1.70,0.05,0.00,0.11
-1.00,1.62,-0.03,-0.00,-0.03
-1.00,1.71,0.04,0.00,0.08
-1.00,1.64,-0.04,-0.00,-0.08
-1.00,1.72,0.03,0.00,0.04
-1.00,1.65,-0.04,-0.00,-0.07
-1.00,1.73,0.03,0.00,0.04
-1.00,1.66,-0.04,-0.00,-0.06
-1.00,1.74,0.04,0.00,0.07
-1.00,1.65,-0.04,-0.00,-0.08
-1.00,1.74,0.05,0.00,0.10
-1.00,1.66,-0.04,-0.00,-0.07
-1.00,1.74,0.04,0.00,0.06
-1.00,1.64,-0.04,-0.00,-0.09
-1.00,1.70,0.04,0.00,0.07
-1.00,1.61,-0.04,-0.00,-0.04
-1.00,1.69,0.05,0.00,0.09
-1.00,1.53,-0.06,-0.00,-0.25
-1.00,1.54,0.04,0.00,0.08
-1.00,1.43,-0.01,-0.00,-0.00
-1.00,1.51,0.06,0.00,0.17
-1.00,1.41,-0.06,-0.00,-0.17
-1.00,1.47,0.02,0.00,0.01
-1.00,1.38,-0.05,-0.00,-0.11
-1.00,1.52,0.06,0.00,0.17
-1.00,1.49,-0.04,-0.00,-0.08
-1.00,1.60,0.03,0.00,0.02
-1.00,1.62,-0.03,-0.00,-0.02
-1.00,1.84,0.05,0.00,0.15
-1.00,2.22,0.04,0.00,0.07
-1.00,2.79,0.01,0.00,0.00
-1.00,2.68,-0.28,-0.02,-21.54
-1.00,2.14,-0.14,-0.00,-2.79
-1.00,1.60,0.19,0.01,6.65
-1.00,1.71,0.44,0.08,84.00
-1.00,1.71,0.06,0.00,0.19
-1.00,1.83,-0.11,-0.00,-1.48
-1.00,1.75,-0.24,-0.01,-14.17
-1.00,1.83,-0.08,-0.00,-0.50
-1.00,1.74,-0.07,-0.00,-0.33
-1.00,1.82,0.07,0.00,0.41
-1.00,1.73,0.02,0.00,0.00
-1.00,1.83,0.10,0.00,0.87
-1.00,1.75,-0.02,-0.00,-0.00
-1.00,1.85,0.05,0.00,0.10
-1.00,1.78,-0.05,-0.00,-0.13
-1.00,1.88,0.03,0.00,0.03
-1.00,1.80,-0.05,-0.00,-0.14
-1.00,1.92,0.04,0.00,0.08
-1.00,1.89,-0.04,-0.00,-0.07
-1.00,2.03,0.04,0.00,0.05
-1.00,1.99,-0.05,-0.00,-0.15
-1.00,2.09,0.03,0.00,0.03
-1.00,1.98,-0.04,-0.00,-0.09
-1.00,1.99,0.04,0.00,0.08
-1.00,1.89,-0.00,-0.00,-0.00
-1.00,1.95,0.06,0.00,0.20
-1.00,1.78,-0.06,-0.00,-0.25
-1.00,1.77,0.03,0.00,0.02
-1.00,1.62,-0.03,-0.00,-0.03
-1.00,1.63,0.04,0.00,0.07
-1.00,1.52,-0.03,-0.00,-0.04
-1.00,1.59,0.03,0.00,0.03
-1.00,1.49,-0.06,-0.00,-0.19
-1.00,1.54,0.03,0.00,0.02
-1.00,1.39,-0.05,-0.00,-0.16
-1.00,1.45,0.07,0.00,0.27
-1.00,1.38,-0.01,-0.00,-0.00
-1.00,1.50,0.05,0.00,0.09
-1.00,1.44,-0.06,-0.00,-0.18
-1.00,1.55,0.02,0.00,0.01
-1.00,1.50,-0.05,-0.00,-0.10
-1.00,1.61,0.05,0.00,0.09
-1.00,1.56,-0.04,-0.00,-0.05
-1.00,1.69,0.05,0.00,0.11
-1.00,1.68,-0.03,-0.00,-0.02
-1.00,1.82,0.03,0.00,0.04
-1.00,1.80,-0.05,-0.00,-0.10
-1.00,1.90,0.02,0.00,0.01
-1.00,1.82,-0.04,-0.00,-0.06
-1.00,1.90,0.06,0.00,0.18
-1.00,1.78,-0.04,-0.00,-0.05
-1.00,1.82,0.05,0.00,0.10
-1.00,1.70,-0.03,-0.00,-0.03
-1.00,1.71,0.03,0.00,0.03
-1.00,1.58,-0.04,-0.00,-0.05
-1.00,1.71,0.06,0.00,0.24
-1.00,1.69,-0.05,-0.00,-0.13
-1.00,1.79,-0.00,-0.00,-0.00
-1.00,1.71,-0.07,-0.00,-0.32
-1.00,1.79,0.05,0.00,0.11
-1.00,1.69,-0.02,-0.00,-0.01
-1.00,1.76,0.06,0.00,0.27
-1.00,1.66,-0.03,-0.00,-0.03
-1.00,1.74,0.05,0.00,0.12
-1.00,1.64,-0.04,-0.00,-0.09
-1.00,1.74,0.04,0.00,0.07
-1.00,1.68,-0.05,-0.00,-0.13
-1.00,1.74,0.02,0.00,0.00
-1.00,1.64,-0.04,-0.00,-0.08
-1.00,1.72,0.05,0.00,0.15
-1.00,1.64,-0.03,-0.00,-0.03
-1.00,1.69,0.03,0.00,0.04
-1.00,1.60,-0.03,-0.00,-0.04
-1.00,1.69,0.05,0.00,0.09
-1.00,1.61,-0.04,-0.00,-0.08
-1.00,1.71,0.04,0.00,0.07
-1.00,1.62,-0.05,-0.00,-0.16
-1.00,1.71,0.04,0.00,0.06
-1.00,1.61,-0.04,-0.00,-0.07
-1.00,1.72,0.06,0.00,0.18
-1.00,1.71,-0.03,-0.00,-0.02
-1.00,1.79,0.01,0.00,0.00
-1.00,1.71,-0.05,-0.00,-0.16
-1.00,1.77,0.04,0.00,0.09
-1.00,1.57,-0.05,-0.00,-0.15
-1.00,1.63,0.09,0.00,0.68
-1.00,1.58,-0.00,-0.00,-0.00
-1.00,1.70,0.03,0.00,0.02
-1.00,1.63,-0.08,-0.00,-0.52
-1.00,1.74,0.02,0.00,0.01
-1.00,1.67,-0.05,-0.00,-0.11
-1.00,1.78,0.05,0.00,0.13
-1.00,2.20,0.10,0.00,1.04
-1.00,2.65,-0.03,-0.00,-0.03
-1.00,2.47,-0.28,-0.02,-21.33
-1.00,1.90,-0.13,-0.00,-1.98
-1.00,1.44,0.22,0.01,10.22
-1.00,1.54,0.40,0.06,62.43
-1.00,1.52,0.02,0.00,0.01
-1.00,1.63,-0.12,-0.00,-1.53
-1.00,1.56,-0.22,-0.01,-10.29
-1.00,1.67,-0.06,-0.00,-0.25
-1.00,1.60,-0.06,-0.00,-0.26
-1.00,1.71,0.07,0.00,0.38
-1.00,1.57,-0.01,-0.00,-0.00
-1.00,1.64,0.10,0.00,1.06
-1.00,1.56,0.00,0.00,0.00
-1.00,1.68,0.06,0.00,0.27
-1.00,1.62,-0.06,-0.00,-0.22
-1.00,1.74,0.02,0.00,0.00
-1.00,1.68,-0.06,-0.00,-0.25
-1.00,1.81,0.04,0.00,0.07
-1.00,1.78,-0.04,-0.00,-0.09
-1.00,1.93,0.05,0.00,0.10
-1.00,1.92,-0.04,-0.00,-0.07
-1.00,2.01,0.03,0.00,0.02
-1.00,1.98,-0.03,-0.00,-0.02
-1.00,2.12,0.06,0.00,0.17
-1.00,1.99,-0.06,-0.00,-0.27
-1.00,2.01,0.04,0.00,0.06
-1.00,1.81,-0.03,-0.00,-0.04
-1.00,1.77,0.07,0.00,0.29
-1.00,1.61,-0.01,-0.00,-0.00
-1.00,1.59,0.03,0.00,0.03
-1.00,1.48,-0.04,-0.00,-0.05
-1.00,1.55,0.03,0.00,0.02
-1.00,1.47,-0.07,-0.00,-0.39
-1.00,1.56,0.02,0.00,0.01
-1.00,1.51,-0.05,-0.00,-0.10
-1.00,1.61,0.04,0.00,0.09
-1.00,1.55,-0.03,-0.00,-0.04
-1.00,1.65,0.05,0.00,0.16
-1.00,1.60,-0.03,-0.00,-0.02
-1.00,1.68,0.04,0.00,0.04
-1.00,1.59,-0.04,-0.00,-0.05
-1.00,1.70,0.05,0.00,0.15
-1.00,1.61,-0.05,-0.00,-0.11
-1.00,1.71,0.04,0.00,0.06
-1.00,1.56,-0.07,-0.00,-0.34
-1.00,1.57,0.04,0.00,0.08
-1.00,1.45,-0.01,-0.00,-0.00
-1.00,1.54,0.06,0.00,0.27
-1.00,1.45,-0.05,-0.00,-0.15
-1.00,1.54,0.02,0.00,0.02
-1.00,1.47,-0.06,-0.00,-0.20
-1.00,1.52,0.03,0.00,0.02
-1.00,1.43,-0.03,-0.00,-0.04
-1.00,1.62,0.09,0.00,0.72
-1.00,1.62,-0.05,-0.00,-0.12
-1.00,1.88,0.04,0.00,0.08
-1.00,1.89,-0.09,-0.00,-0.72
-1.00,2.02,0.01,0.00,0.00
-1.00,1.97,-0.03,-0.00,-0.04
-1.00,2.10,0.08,0.00,0.54
-1.00,2.06,-0.01,-0.00,-0.00
-1.00,2.19,0.05,0.00,0.16
-1.00,1.97,-0.10,-0.00,-0.92
-1.00,1.37,-0.11,-0.00,-1.44
-1.00,0.40,-0.02,-0.00,-0.00
-1.00,0.09,0.37,0.05,49.41
-1.00,0.02,0.18,0.01,5.60
-1.00,0.00,-0.11,-0.00,-1.49
-1.00,0.00,-0.23,-0.01,-11.76
-1.00,0.00,-0.18,-0.01,-5.91
-1.00,0.00,-0.07,-0.00,-0.31
-1.00,0.00,0.03,0.00,0.03
-1.00,0.00,0.08,0.00,0.49
-1.00,0.00,0.08,0.00,0.54
-1.00,0.00,0.06,0.00,0.19
-1.00,0.00,0.03,0.00,0.02
-1.00,0.00,-0.00,-0.00,-0.00
-1.00,0.00,-0.01,-0.00,-0.00
-1.00,0.00,-0.02,-0.00,-0.01
-1.00,0.00,-0.02,-0.00,-0.00
-1.00,0.00,-0.01,-0.00,-0.00
-1.00,0.00,-0.00,-0.00,-0.00
-1.00,0.02,0.01,0.00,0.00
-1.00,0.00,-0.01,-0.00,-0.00
-1.00,0.00,0.01,0.00,0.00
-1.00,0.09,0.03,0.00,0.04
-1.00,0.08,-0.03,-0.00,-0.03
-1.00,0.37,0.07,0.00,0.38
-1.00,0.49,-0.07,-0.00,-0.33
-1.00,0.77,-0.00,-0.00,-0.00
-1.00,0.86,-0.07,-0.00,-0.37
-1.00,1.27,0.10,0.00,0.90
-1.00,1.97,0.10,0.00,0.95
-1.00,2.48,-0.11,-0.00,-1.48
-1.00,3.59,0.08,0.00,0.48
-1.00,4.73,-0.06,-0.00,-0.20
-1.00,4.94,-0.38,-0.05,-53.75
-1.00,4.99,-0.03,-0.00,-0.02
-1.00,4.99,0.25,0.02,15.42
-1.00,5.00,0.28,0.02,22.06
-1.00,5.00,0.14,0.00,2.76
-1.00,5.00,-0.01,-0.00,-0.00
-1.00,4.98,-0.11,-0.00,-1.25
-1.00,4.89,-0.14,-0.00,-2.55
-1.00,4.35,-0.21,-0.01,-9.72
-1.00,4.14,0.11,0.00,1.21
-1.00,3.87,0.07,0.00,0.36
-1.00,3.96,0.13,0.00,2.13
-1.00,3.80,-0.12,-0.00,-1.61
-1.00,3.82,-0.03,-0.00,-0.04
-1.00,3.60,-0.10,-0.00,-1.09
-1.00,3.63,0.07,0.00,0.40
-1.00,3.38,-0.03,-0.00,-0.04
-1.00,3.31,0.08,0.00,0.52
-1.00,3.11,0.01,0.00,0.00
-1.00,3.15,0.08,0.00,0.57
-1.00,2.92,-0.09,-0.00,-0.66
-1.00,2.88,0.02,0.00,0.01
-1.00,2.61,-0.07,-0.00,-0.29
-1.00,2.49,0.04,0.00,0.07
-1.00,2.17,-0.03,-0.00,-0.02
-1.00,2.09,0.08,0.00,0.59
-1.00,1.84,-0.04,-0.00,-0.05
-1.00,1.79,0.04,0.00,0.05
-1.00,1.53,-0.08,-0.00,-0.52
-1.00,1.49,0.04,0.00,0.06
-1.00,1.32,-0.03,-0.00,-0.04
-1.00,1.47,0.08,0.00,0.48
-1.00,1.41,-0.07,-0.00,-0.39
-1.00,1.56,0.01,0.00,0.00
-1.00,1.51,-0.07,-0.00,-0.29
-1.00,1.70,0.06,0.00,0.27
-1.00,1.66,-0.04,-0.00,-0.07
-1.00,1.81,0.06,0.00,0.21
-1.00,1.72,-0.05,-0.00,-0.12
-1.00,1.82,0.07,0.00,0.31
-1.00,1.68,-0.04,-0.00,-0.08
-1.00,1.77,0.07,0.00,0.33
-1.00,1.61,-0.06,-0.00,-0.24
-1.00,1.70,0.06,0.00,0.18
-1.00,1.56,-0.06,-0.00,-0.24
-1.00,1.66,0.05,0.00,0.11
-1.00,1.55,-0.06,-0.00,-0.24
-1.00,1.65,0.04,0.00,0.07
-1.00,1.50,-0.07,-0.00,-0.31
-1.00,1.63,0.08,0.00,0.46
-1.00,1.55,-0.05,-0.00,-0.10
-1.00,1.71,0.06,0.00,0.18
-1.00,1.64,-0.06,-0.00,-0.27
-1.00,1.77,0.04,0.00,0.08
-1.00,1.66,-0.06,-0.00,-0.25
-1.00,1.68,0.04,0.00,0.06
-1.00,1.17,-0.12,-0.00,-1.54
-1.00,0.48,-0.00,-0.00,-0.00
-1.00,0.12,0.23,0.01,12.69
-1.00,0.03,0.18,0.01,5.44
-1.00,0.00,-0.05,-0.00,-0.13
-1.00,0.00,-0.17,-0.00,-4.55
-1.00,0.00,-0.16,-0.00,-3.73
-1.00,0.00,-0.07,-0.00,-0.40
-1.00,0.00,0.01,0.00,0.00
-1.00,0.00,0.06,0.00,0.17
-1.00,0.00,0.07,0.00,0.28
-1.00,0.00,0.05,0.00,0.13
-1.00,0.00,0.03,0.00,0.02
-1.00,0.00,0.01,0.00,0.00
-1.00,0.00,-0.01,-0.00,-0.00
-1.00,0.00,-0.01,-0.00,-0.00
-1.00,0.00,-0.01,-0.00,-0.00
-1.00,0.00,-0.01,-0.00,-0.00
-1.00,0.00,-0.00,-0.00,-0.00
-1.00,0.00,-0.00,-0.00,-0.00
-1.00,0.00,0.00,0.00,0.00
-1.00,0.00,0.00,0.00,0.00
-1.00,0.00,0.00,0.00,0.00
-1.00,0.08,0.02,0.00,0.02
-1.00,0.04,-0.04,-0.00,-0.08
-1.00,0.27,0.07,0.00,0.32
-1.00,0.48,-0.01,-0.00,-0.00
-1.00,1.31,0.13,0.00,2.13
-1.00,1.49,-0.28,-0.02,-21.13
-1.00,1.31,-0.20,-0.01,-8.23
-1.00,0.75,-0.01,-0.00,-0.00
-1.00,0.92,0.46,0.09,94.39
-1.00,1.06,0.17,0.01,5.02
-1.00,1.33,-0.03,-0.00,-0.02
-1.00,1.31,-0.25,-0.02,-15.14
-1.00,1.52,-0.07,-0.00,-0.34
-1.00,1.43,-0.11,-0.00,-1.43
-1.00,1.59,0.09,0.00,0.62
-1.00,1.48,-0.01,-0.00,-0.00
-1.00,1.62,0.12,0.00,1.53
-1.00,1.49,-0.04,-0.00,-0.07
-1.00,1.64,0.08,0.00,0.55
-1.00,1.53,-0.07,-0.00,-0.34
-1.00,1.70,0.05,0.00,0.14
-1.00,1.61,-0.08,-0.00,-0.56
-1.00,1.81,0.06,0.00,0.19
-1.00,1.75,-0.07,-0.00,-0.42
-1.00,1.95,0.06,0.00,0.19
-1.00,1.90,-0.06,-0.00,-0.24
-1.00,2.11,0.07,0.00,0.32
-1.00,2.03,-0.06,-0.00,-0.27
-1.00,2.22,0.07,0.00,0.38
-1.00,2.11,-0.07,-0.00,-0.29
-1.00,2.20,0.06,0.00,0.22
-1.00,2.03,-0.05,-0.00,-0.15
-1.00,2.17,0.10,0.00,0.88
-1.00,2.01,-0.07,-0.00,-0.37
-1.00,2.14,0.06,0.00,0.23
-1.00,2.02,-0.07,-0.00,-0.39
-1.00,2.24,0.07,0.00,0.40
-1.00,2.24,-0.07,-0.00,-0.42
-1.00,2.50,0.03,0.00,0.04
-1.00,2.48,-0.09,-0.00,-0.72
-1.00,2.67,0.05,0.00,0.14
-1.00,2.54,-0.06,-0.00,-0.27
-1.00,2.62,0.09,0.00,0.78
-1.00,2.40,-0.03,-0.00,-0.03
-1.00,2.49,0.11,0.00,1.36
-1.00,2.33,-0.05,-0.00,-0.12
-1.00,2.49,0.07,0.00,0.28
-1.00,2.42,-0.10,-0.00,-0.88
-1.00,2.62,0.02,0.00,0.01
-1.00,2.47,-0.12,-0.00,-1.84
-1.00,2.50,0.04,0.00,0.08
-1.00,2.28,-0.02,-0.00,-0.02
-1.00,2.36,0.13,0.00,2.04
-1.00,2.16,-0.04,-0.00,-0.06
-1.00,2.25,0.07,0.00,0.37
-1.00,2.09,-0.08,-0.00,-0.55
-1.00,2.21,0.04,0.00,0.09
-1.00,2.09,-0.08,-0.00,-0.52
-1.00,2.21,0.05,0.00,0.10
-1.00,2.06,-0.07,-0.00,-0.41
-1.00,2.16,0.07,0.00,0.36
-1.00,1.97,-0.06,-0.00,-0.21
-1.00,2.13,0.11,0.00,1.26
-1.00,2.00,-0.07,-0.00,-0.28
-1.00,2.17,0.06,0.00,0.22
-1.00,2.07,-0.08,-0.00,-0.53
-1.00,2.23,0.05,0.00,0.14
-1.00,2.10,-0.08,-0.00,-0.52
-1.00,2.25,0.08,0.00,0.50
-1.00,2.15,-0.05,-0.00,-0.12
-1.00,2.31,0.07,0.00,0.32
-1.00,2.18,-0.07,-0.00,-0.40
-1.00,2.27,0.05,0.00,0.13
-1.00,2.09,-0.06,-0.00,-0.20
-1.00,2.20,0.09,0.00,0.68
-1.00,2.06,-0.06,-0.00,-0.19
-1.00,2.18,0.06,0.00,0.24
-1.00,2.04,-0.08,-0.00,-0.54
-1.00,2.20,0.07,0.00,0.31
-1.00,2.10,-0.07,-0.00,-0.38
-1.00,2.21,0.04,0.00,0.07
-1.00,2.03,-0.07,-0.00,-0.42
-1.00,2.07,0.07,0.00,0.36
-1.00,1.88,-0.03,-0.00,-0.02
-1.00,1.98,0.09,0.00,0.85
-1.00,1.84,-0.06,-0.00,-0.22
-1.00,2.00,0.06,0.00,0.19
-1.00,1.91,-0.09,-0.00,-0.75
-1.00,2.07,0.04,0.00,0.05
-1.00,1.90,-0.10,-0.00,-0.93
-1.00,2.16,0.13,0.00,1.96
-1.00,2.57,0.06,0.00,0.25
-1.00,2.87,-0.09,-0.00,-0.80
-1.00,2.47,-0.28,-0.02,-21.76
-1.00,1.91,-0.00,-0.00,-0.00
-1.00,1.59,0.29,0.02,23.54
-1.00,1.82,0.34,0.04,40.37
-1.00,1.82,-0.09,-0.00,-0.82
-1.00,2.07,-0.12,-0.00,-1.80
-1.00,2.11,-0.22,-0.01,-11.27
-1.00,2.36,-0.04,-0.00,-0.05
-1.00,2.30,-0.09,-0.00,-0.69
-1.00,2.47,0.11,0.00,1.40
-1.00,2.36,0.01,0.00,0.00
-1.00,2.53,0.14,0.00,3.04
-1.00,2.42,-0.03,-0.00,-0.03
-1.00,2.55,0.06,0.00,0.18
-1.00,2.39,-0.09,-0.00,-0.75
-1.00,2.50,0.06,0.00,0.19
-1.00,2.33,-0.08,-0.00,-0.55
-1.00,2.45,0.07,0.00,0.29
-1.00,2.26,-0.09,-0.00,-0.63
-1.00,2.37,0.07,0.00,0.37
-1.00,2.21,-0.06,-0.00,-0.26
-1.00,2.34,0.07,0.00,0.38
-1.00,2.20,-0.07,-0.00,-0.33
-1.00,2.28,0.05,0.00,0.11
-1.00,2.08,-0.07,-0.00,-0.38
-1.00,2.09,0.07,0.00,0.29
-1.00,1.84,-0.04,-0.00,-0.08
-1.00,1.86,0.09,0.00,0.74
-1.00,1.66,-0.05,-0.00,-0.11
-1.00,1.71,0.05,0.00,0.12
-1.00,1.52,-0.08,-0.00,-0.49
-1.00,1.65,0.07,0.00,0.31
-1.00,1.56,-0.07,-0.00,-0.38
-1.00,1.75,0.05,0.00,0.10
-1.00,1.68,-0.08,-0.00,-0.57
-1.00,1.87,0.06,0.00,0.23
-1.00,1.76,-0.07,-0.00,-0.29
-1.00,1.92,0.08,0.00,0.55
-1.00,1.78,-0.05,-0.00,-0.16
-1.00,1.91,0.09,0.00,0.64
-1.00,1.74,-0.06,-0.00,-0.21
-1.00,1.85,0.07,0.00,0.34
-1.00,1.70,-0.06,-0.00,-0.25
-1.00,1.85,0.07,0.00,0.29
-1.00,1.70,-0.09,-0.00,-0.75
-1.00,1.83,0.06,0.00,0.20
-1.00,1.69,-0.07,-0.00,-0.41
-1.00,1.80,0.06,0.00,0.25
-1.00,1.67,-0.06,-0.00,-0.17
-1.00,1.84,0.09,0.00,0.63
-1.00,1.75,-0.06,-0.00,-0.27
-1.00,1.94,0.05,0.00,0.15
-1.00,1.87,-0.07,-0.00,-0.40
-1.00,2.05,0.06,0.00,0.18
-1.00,1.93,-0.08,-0.00,-0.43
-1.00,2.09,0.08,0.00,0.49
-1.00,1.97,-0.05,-0.00,-0.15
-1.00,2.13,0.08,0.00,0.49
-1.00,1.98,-0.07,-0.00,-0.39
-1.00,2.10,0.06,0.00,0.25
-1.00,1.89,-0.08,-0.00,-0.58
-1.00,1.97,0.08,0.00,0.58
-1.00,1.85,-0.04,-0.00,-0.04
-1.00,1.99,0.06,0.00,0.21
-1.00,1.84,-0.10,-0.00,-0.93
-1.00,1.96,0.05,0.00,0.12
-1.00,1.81,-0.06,-0.00,-0.26
-1.00,1.94,0.07,0.00,0.39
-1.00,1.85,-0.04,-0.00,-0.08
-1.00,2.05,0.07,0.00,0.33
-1.00,1.94,-0.09,-0.00,-0.79
-1.00,2.06,0.05,0.00,0.11
-1.00,1.89,-0.07,-0.00,-0.28
-1.00,1.98,0.09,0.00,0.67
-1.00,1.83,-0.04,-0.00,-0.06
-1.00,1.96,0.08,0.00,0.48
-1.00,1.80,-0.08,-0.00,-0.49
-1.00,1.94,0.06,0.00,0.18
-1.00,1.81,-0.07,-0.00,-0.42
-1.00,1.89,0.04,0.00,0.06
-1.00,1.83,-0.03,-0.00,-0.03
-1.00,2.52,0.21,0.01,8.95
-1.00,2.64,-0.21,-0.01,-9.84
-1.00,2.48,-0.20,-0.01,-7.54
-1.00,1.67,-0.14,-0.00,-2.93
-1.00,1.63,0.43,0.08,79.68
-1.00,1.62,0.22,0.01,10.95
-1.00,1.79,0.02,0.00,0.01
-1.00,1.68,-0.25,-0.01,-14.78
-1.00,1.79,-0.09,-0.00,-0.71
-1.00,1.59,-0.14,-0.00,-2.73
-1.00,1.61,0.07,0.00,0.40
-1.00,1.40,0.00,0.00,0.00
-1.00,1.39,0.11,0.00,1.49
-1.00,1.14,-0.02,-0.00,-0.01
-1.00,1.12,0.07,0.00,0.40
-1.00,0.89,-0.05,-0.00,-0.16
-1.00,0.97,0.06,0.00,0.26
-1.00,0.87,-0.07,-0.00,-0.36
-1.00,1.10,0.04,0.00,0.07
-1.00,1.08,-0.11,-0.00,-1.20
-1.00,1.33,0.04,0.00,0.04
-1.00,1.32,-0.08,-0.00,-0.43
-1.00,1.56,0.07,0.00,0.39
-1.00,1.51,-0.05,-0.00,-0.11
-1.00,1.65,0.08,0.00,0.46
-1.00,1.50,-0.04,-0.00,-0.07
-1.00,1.61,0.09,0.00,0.83
-1.00,1.41,-0.06,-0.00,-0.22
-1.00,1.43,0.05,0.00,0.16
-1.00,1.18,-0.07,-0.00,-0.31
-1.00,1.20,0.07,0.00,0.31
-1.00,1.06,-0.04,-0.00,-0.08
-1.00,1.27,0.07,0.00,0.37
-1.00,1.29,-0.09,-0.00,-0.70
-1.00,1.53,-0.00,-0.00,-0.00
-1.00,1.51,-0.11,-0.00,-1.18
-1.00,1.68,0.05,0.00,0.12
-1.00,1.50,-0.05,-0.00,-0.15
-1.00,1.55,0.12,0.00,1.71
-1.00,1.43,0.02,0.00,0.01
-1.00,1.56,0.09,0.00,0.78
-1.00,1.46,-0.07,-0.00,-0.42
-1.00,1.74,0.06,0.00,0.22
-1.00,1.76,-0.11,-0.00,-1.41
-1.00,1.97,-0.01,-0.00,-0.00
-1.00,1.92,-0.09,-0.00,-0.65
-1.00,2.12,0.08,0.00,0.61
-1.00,2.07,-0.03,-0.00,-0.02
-1.00,2.24,0.09,0.00,0.62
-1.00,2.14,-0.06,-0.00,-0.17
-1.00,2.28,0.07,0.00,0.37
-1.00,2.13,-0.07,-0.00,-0.32
-1.00,2.27,0.07,0.00,0.41
-1.00,2.15,-0.07,-0.00,-0.34
-1.00,2.29,0.06,0.00,0.20
-1.00,2.15,-0.08,-0.00,-0.60
-1.00,2.29,0.06,0.00,0.27
-1.00,2.13,-0.08,-0.00,-0.48
-1.00,2.23,0.07,0.00,0.39
-1.00,2.16,-0.03,-0.00,-0.03
-1.00,2.40,0.08,0.00,0.53
-1.00,2.38,-0.09,-0.00,-0.80
-1.00,2.56,0.02,0.00,0.01
-1.00,2.36,-0.11,-0.00,-1.35
-1.00,2.27,0.05,0.00,0.14
-1.00,1.75,-0.05,-0.00,-0.09
-1.00,1.47,0.15,0.00,3.36
-1.00,1.08,0.06,0.00,0.18
-1.00,0.97,0.09,0.00,0.68
-1.00,0.73,-0.09,-0.00,-0.76
-1.00,0.75,-0.03,-0.00,-0.02
-1.00,0.58,-0.14,-0.00,-2.72
-1.00,0.63,0.01,0.00,0.00
-1.00,0.56,-0.04,-0.00,-0.05
-1.00,0.75,0.08,0.00,0.61
-1.00,0.71,-0.05,-0.00,-0.13
-1.00,0.88,0.06,0.00,0.25
-1.00,1.10,0.04,0.00,0.05
-1.00,1.91,0.15,0.00,3.58
-1.00,1.86,-0.32,-0.03,-33.25
-1.00,1.47,-0.18,-0.01,-5.83
-1.00,0.82,0.07,0.00,0.36
-1.00,1.01,0.49,0.12,120.69
-1.00,1.09,0.11,0.00,1.26
-1.00,1.35,-0.08,-0.00,-0.58
-1.00,1.26,-0.30,-0.03,-27.75
-1.00,1.35,-0.09,-0.00,-0.66
-1.00,1.22,-0.07,-0.00,-0.29
-1.00,1.44,0.15,0.00,3.40
-1.00,1.46,0.01,0.00,0.00
-1.00,1.78,0.09,0.00,0.81
-1.00,1.85,-0.08,-0.00,-0.60
-1.00,2.11,0.02,0.00,0.00
-1.00,2.01,-0.10,-0.00,-1.03
-1.00,2.13,0.08,0.00,0.52
-1.00,1.97,-0.02,-0.00,-0.01
-1.00,2.07,0.11,0.00,1.39
-1.00,1.89,-0.05,-0.00,-0.16
-1.00,1.97,0.06,0.00,0.23
-1.00,1.76,-0.09,-0.00,-0.74
-1.00,1.87,0.06,0.00,0.21
-1.00,1.70,-0.08,-0.00,-0.60
-1.00,1.75,0.04,0.00,0.07
-1.00,1.60,-0.05,-0.00,-0.16
-1.00,1.73,0.08,0.00,0.43
-1.00,1.56,-0.08,-0.00,-0.48
-1.00,1.58,0.04,0.00,0.09
-1.00,1.39,-0.04,-0.00,-0.06
-1.00,1.47,0.09,0.00,0.80
-1.00,1.31,-0.05,-0.00,-0.15
-1.00,1.47,0.07,0.00,0.35
-1.00,1.37,-0.08,-0.00,-0.60
-1.00,1.56,0.05,0.00,0.10
-1.00,1.49,-0.08,-0.00,-0.54
-1.00,1.67,0.06,0.00,0.18
-1.00,1.57,-0.07,-0.00,-0.28
-1.00,1.76,0.09,0.00,0.66
-1.00,1.68,-0.05,-0.00,-0.15
-1.00,1.84,0.06,0.00,0.25
-1.00,1.74,-0.06,-0.00,-0.21
-1.00,1.91,0.07,0.00,0.32
-1.00,1.80,-0.07,-0.00,-0.34
-1.00,1.94,0.06,0.00,0.20
-1.00,1.78,-0.07,-0.00,-0.40
-1.00,1.91,0.08,0.00,0.45
-1.00,1.73,-0.07,-0.00,-0.31
-1.00,1.83,0.07,0.00,0.41
-1.00,1.73,-0.05,-0.00,-0.11
-1.00,1.96,0.08,0.00,0.49
-1.00,1.88,-0.10,-0.00,-1.10
-1.00,1.98,0.01,0.00,0.00
-1.00,1.83,-0.06,-0.00,-0.25
-1.00,1.96,0.10,0.00,1.04
-1.00,1.79,-0.05,-0.00,-0.14
-1.00,1.90,0.08,0.00,0.61
-1.00,1.74,-0.06,-0.00,-0.21
-1.00,1.88,0.07,0.00,0.33
-1.00,1.73,-0.09,-0.00,-0.63
-1.00,1.85,0.05,0.00,0.16
-1.00,1.70,-0.07,-0.00,-0.39
-1.00,1.84,0.07,0.00,0.38
-1.00,1.76,-0.05,-0.00,-0.14
-1.00,1.95,0.06,0.00,0.20
-1.00,1.81,-0.09,-0.00,-0.77
-1.00,1.92,0.06,0.00,0.19
-1.00,1.74,-0.06,-0.00,-0.18
-1.00,1.85,0.10,0.00,0.89
-1.00,1.66,-0.06,-0.00,-0.21
-1.00,1.74,0.07,0.00,0.39
-1.00,1.57,-0.07,-0.00,-0.30
-1.00,1.70,0.07,0.00,0.28
-1.00,1.57,-0.08,-0.00,-0.43
-1.00,1.63,0.03,0.00,0.02
-1.00,1.70,0.00,0.00,0.00
-1.00,2.41,0.16,0.00,4.39
-1.00,2.37,-0.29,-0.02,-23.81
-1.00,1.98,-0.20,-0.01,-7.54
-1.00,1.25,0.01,0.00,0.00
-1.00,1.33,0.48,0.11,110.98
-1.00,1.30,0.13,0.00,2.00
-1.00,1.49,-0.03,-0.00,-0.03
-1.00,1.40,-0.26,-0.02,-17.17
-1.00,1.57,-0.07,-0.00,-0.42
-1.00,1.47,-0.12,-0.00,-1.66
-1.00,1.66,0.09,0.00,0.82
-1.00,1.57,-0.02,-0.00,-0.01
-1.00,1.76,0.12,0.00,1.62
-1.00,1.71,-0.03,-0.00,-0.02
-1.00,1.91,0.07,0.00,0.33
-1.00,1.78,-0.09,-0.00,-0.68
-1.00,1.99,0.08,0.00,0.56
-1.00,1.92,-0.07,-0.00,-0.35
-1.00,2.13,0.06,0.00,0.21
-1.00,2.10,-0.07,-0.00,-0.31
-1.00,2.36,0.06,0.00,0.26
-1.00,2.39,-0.07,-0.00,-0.36
-1.00,2.65,0.04,0.00,0.07
-1.00,2.66,-0.07,-0.00,-0.31
-1.00,2.97,0.08,0.00,0.53
-1.00,3.12,-0.03,-0.00,-0.03
-1.00,3.47,0.04,0.00,0.05
-1.00,3.37,-0.14,-0.00,-2.65
-1.00,3.38,0.04,0.00,0.05
-1.00,3.02,-0.03,-0.00,-0.02
-1.00,2.88,0.15,0.00,3.56
-1.00,2.49,0.01,0.00,0.00
-1.00,2.38,0.09,0.00,0.70
-1.00,2.07,-0.07,-0.00,-0.42
-1.00,1.96,-0.01,-0.00,-0.00
-1.00,1.60,-0.12,-0.00,-1.79
-1.00,1.54,0.05,0.00,0.12
-1.00,1.21,-0.08,-0.00,-0.48
-1.00,0.97,0.02,0.00,0.01
-1.00,0.43,-0.05,-0.00,-0.13
-1.00,0.11,0.12,0.00,1.69
-1.00,0.02,0.13,0.00,2.41
-1.00,0.03,0.00,0.00,0.00
-1.00,0.00,-0.11,-0.00,-1.46
-1.00,0.00,-0.09,-0.00,-0.75
-1.00,0.00,-0.04,-0.00,-0.06
-1.00,0.00,0.01,0.00,0.00
-1.00,0.00,0.04,0.00,0.06
-1.00,0.13,0.08,0.00,0.43
-1.00,0.10,-0.03,-0.00,-0.02
-1.00,0.41,0.09,0.00,0.85
-1.00,0.49,-0.08,-0.00,-0.44
-1.00,0.84,0.03,0.00,0.02
-1.00,1.00,-0.08,-0.00,-0.48
-1.00,1.36,0.03,0.00,0.02
-1.00,1.45,-0.07,-0.00,-0.36
-1.00,1.75,0.07,0.00,0.36
-1.00,1.78,-0.04,-0.00,-0.05
-1.00,2.06,0.09,0.00,0.84
-1.00,2.07,-0.05,-0.00,-0.12
-1.00,2.28,0.06,0.00,0.18
-1.00,2.19,-0.08,-0.00,-0.48
-1.00,2.42,0.08,0.00,0.59
-1.00,2.36,-0.07,-0.00,-0.35
-1.00,2.65,0.08,0.00,0.49
-1.00,3.55,0.16,0.00,4.15
-1.00,4.67,-0.06,-0.00,-0.19
-1.00,4.95,-0.46,-0.10,-98.06
-1.00,4.99,-0.17,-0.01,-5.15
-1.00,5.00,0.18,0.01,5.87
-1.00,5.00,0.29,0.02,23.58
-1.00,5.00,0.20,0.01,7.45
-1.00,5.00,0.06,0.00,0.19
-1.00,5.00,-0.06,-0.00,-0.17
-1.00,4.99,-0.10,-0.00,-1.11
-1.00,5.00,-0.09,-0.00,-0.66
-1.00,5.00,-0.06,-0.00,-0.24
-1.00,5.00,-0.02,-0.00,-0.01
-1.00,5.00,0.00,0.00,0.00
-1.00,5.00,0.02,0.00,0.01
-1.00,4.70,-0.06,-0.00,-0.24
-1.00,3.77,-0.13,-0.00,-2.39
-1.00,3.53,0.34,0.04,39.01
-1.00,3.20,0.13,0.00,2.01
-1.00,3.04,0.01,0.00,0.00
-1.00,2.70,-0.17,-0.01,-5.02
-1.00,2.63,-0.05,-0.00,-0.12
-1.00,2.38,-0.11,-0.00,-1.51
-1.00,2.38,0.04,0.00,0.07
-1.00,2.16,-0.05,-0.00,-0.13
-1.00,2.16,0.08,0.00,0.46
-1.00,1.98,-0.01,-0.00,-0.00
-1.00,2.03,0.09,0.00,0.62
-1.00,1.87,-0.05,-0.00,-0.10
-1.00,1.96,0.06,0.00,0.25
-1.00,1.84,-0.06,-0.00,-0.20
-1.00,2.02,0.06,0.00,0.27
-1.00,1.98,-0.08,-0.00,-0.46
-1.00,2.20,0.04,0.00,0.08
-1.00,2.21,-0.07,-0.00,-0.35
-1.00,2.38,0.03,0.00,0.03
-1.00,2.11,-0.11,-0.00,-1.21
-1.00,2.00,0.08,0.00,0.54
-1.00,1.75,0.05,0.00,0.12
-1.00,1.74,0.12,0.00,1.53
-1.00,1.50,-0.06,-0.00,-0.20
-1.00,1.47,0.01,0.00,0.00
-1.00,1.25,-0.09,-0.00,-0.69
-1.00,1.26,0.02,0.00,0.01
-1.00,1.10,-0.06,-0.00,-0.19
-1.00,1.20,0.06,0.00,0.18
-1.00,1.14,-0.05,-0.00,-0.12
-1.00,1.27,0.03,0.00,0.03
-1.00,1.11,-0.08,-0.00,-0.54
-1.00,1.15,0.06,0.00,0.24
-1.00,0.97,-0.02,-0.00,-0.00
-1.00,0.98,0.08,0.00,0.58
-1.00,0.81,-0.03,-0.00,-0.02
-1.00,0.88,0.06,0.00,0.23
-1.00,0.75,-0.07,-0.00,-0.32
-1.00,0.89,0.04,0.00,0.09
-1.00,0.85,-0.08,-0.00,-0.44
-1.00,1.19,0.08,0.00,0.47
-1.00,1.43,-0.06,-0.00,-0.17
-1.00,1.86,-0.00,-0.00,-0.00
-1.00,1.95,-0.13,-0.00,-2.45
-1.00,2.14,0.03,0.00,0.03
-1.00,2.07,0.00,0.00,0.00
-1.00,2.20,0.14,0.00,3.02
-1.00,2.08,0.00,0.00,0.00
-1.00,2.20,0.09,0.00,0.64
-1.00,2.09,-0.07,-0.00,-0.36
-1.00,2.17,0.01,0.00,0.00
-1.00,2.03,-0.09,-0.00,-0.74
-1.00,2.08,0.03,0.00,0.02
-1.00,1.90,-0.06,-0.00,-0.27
-1.00,1.95,0.07,0.00,0.34
-1.00,1.80,-0.04,-0.00,-0.05
-1.00,1.90,0.06,0.00,0.25
-1.00,1.75,-0.07,-0.00,-0.29
-1.00,1.84,0.05,0.00,0.12
-1.00,1.69,-0.06,-0.00,-0.25
-1.00,1.79,0.07,0.00,0.29
-1.00,1.64,-0.06,-0.00,-0.18
-1.00,1.79,0.08,0.00,0.48
-1.00,1.77,-0.04,-0.00,-0.07
-1.00,1.92,0.02,0.00,0.01
-1.00,1.77,-0.10,-0.00,-0.95
-1.00,1.82,0.05,0.00,0.16
-1.00,1.63,-0.03,-0.00,-0.02
-1.00,1.61,0.08,0.00,0.50
-1.00,1.41,-0.02,-0.00,-0.01
-1.00,1.43,0.07,0.00,0.28
-1.00,1.25,-0.06,-0.00,-0.22
-1.00,1.29,0.03,0.00,0.03
-1.00,1.09,-0.08,-0.00,-0.58
-1.00,1.09,0.03,0.00,0.04
-1.00,1.05,0.01,0.00,0.00
-1.00,1.80,0.21,0.01,9.89
-1.00,2.01,-0.23,-0.01,-12.65
-1.00,1.85,-0.25,-0.02,-16.47
-1.00,1.07,-0.14,-0.00,-2.90
-1.00,1.03,0.44,0.09,87.18
-1.00,1.06,0.26,0.02,18.36
-1.00,1.35,0.06,0.00,0.18
-1.00,1.42,-0.24,-0.01,-13.19
-1.00,1.65,-0.14,-0.00,-2.73
-1.00,1.64,-0.15,-0.00,-3.70
-1.00,1.82,0.06,0.00,0.17
-1.00,1.75,0.00,0.00,0.00
-1.00,1.89,0.13,0.00,2.01
-1.00,1.79,0.00,0.00,0.00
-1.00,1.97,0.10,0.00,0.97
-1.00,1.92,-0.06,-0.00,-0.26
-1.00,2.09,0.03,0.00,0.03
-1.00,2.00,-0.09,-0.00,-0.79
-1.00,2.16,0.04,0.00,0.08
-1.00,2.05,-0.07,-0.00,-0.30
-1.00,2.17,0.07,0.00,0.29
-1.00,2.05,-0.05,-0.00,-0.14
-1.00,2.15,0.07,0.00,0.31
-1.00,2.05,-0.04,-0.00,-0.07
-1.00,2.19,0.06,0.00,0.20
-1.00,2.06,-0.08,-0.00,-0.47
-1.00,2.20,0.06,0.00,0.20
-1.00,2.08,-0.07,-0.00,-0.28
-1.00,2.17,0.05,0.00,0.11
-1.00,2.02,-0.05,-0.00,-0.13
-1.00,2.13,0.08,0.00,0.45
-1.00,2.05,-0.04,-0.00,-0.05
-1.00,2.22,0.05,0.00,0.15
-1.00,2.14,-0.09,-0.00,-0.66
-1.00,2.24,0.03,0.00,0.03
-1.00,2.10,-0.06,-0.00,-0.20
-1.00,2.14,0.06,0.00,0.25
-1.00,2.01,-0.01,-0.00,-0.00
-1.00,2.10,0.07,0.00,0.36
-1.00,1.97,-0.06,-0.00,-0.22
-1.00,2.05,0.04,0.00,0.06
-1.00,1.90,-0.07,-0.00,-0.39
-1.00,1.97,0.05,0.00,0.16
-1.00,1.82,-0.06,-0.00,-0.18
-1.00,1.83,0.04,0.00,0.09
-1.00,1.66,-0.04,-0.00,-0.05
-1.00,1.72,0.07,0.00,0.37
-1.00,1.55,-0.05,-0.00,-0.16
-1.00,1.68,0.06,0.00,0.27
-1.00,1.55,-0.08,-0.00,-0.48
-1.00,1.67,0.04,0.00,0.09
-1.00,1.58,-0.06,-0.00,-0.22
-1.00,1.73,0.06,0.00,0.17
-1.00,1.65,-0.06,-0.00,-0.18
-1.00,1.80,0.06,0.00,0.20
-1.00,1.70,-0.06,-0.00,-0.19
-1.00,1.82,0.06,0.00,0.24
-1.00,1.71,-0.05,-0.00,-0.12
-1.00,1.82,0.06,0.00,0.25
-1.00,1.70,-0.05,-0.00,-0.14
-1.00,1.83,0.06,0.00,0.24
-1.00,1.74,-0.06,-0.00,-0.20
-1.00,1.86,0.04,0.00,0.07
-1.00,1.77,-0.06,-0.00,-0.24
-1.00,1.88,0.05,0.00,0.11
-1.00,1.79,-0.05,-0.00,-0.11
-1.00,1.85,0.04,0.00,0.08
-1.00,1.72,-0.04,-0.00,-0.06
-1.00,1.91,0.10,0.00,0.94
-1.00,1.83,-0.07,-0.00,-0.40
-1.00,1.94,0.02,0.00,0.01
-1.00,1.79,-0.07,-0.00,-0.37
-1.00,1.86,0.07,0.00,0.31
-1.00,1.72,-0.03,-0.00,-0.04
-1.00,1.83,0.08,0.00,0.45
-1.00,1.73,-0.05,-0.00,-0.14
-1.00,1.87,0.04,0.00,0.09
-1.00,1.80,-0.07,-0.00,-0.31
-1.00,1.93,0.03,0.00,0.03
-1.00,1.83,-0.06,-0.00,-0.26
-1.00,2.13,0.12,0.00,1.56
-1.00,2.68,0.07,0.00,0.40
-1.00,2.98,-0.15,-0.00,-3.72
-1.00,2.43,-0.34,-0.04,-38.76
-1.00,1.84,0.07,0.00,0.30
-1.00,1.60,0.37,0.05,52.04
-1.00,1.80,0.31,0.03,30.45
-1.00,1.73,-0.13,-0.00,-2.24
-1.00,1.86,-0.15,-0.00,-3.19
-1.00,1.78,-0.21,-0.01,-9.32
-1.00,1.92,-0.01,-0.00,-0.00
-1.00,1.80,-0.06,-0.00,-0.19
-1.00,1.89,0.10,0.00,0.92
-1.00,1.73,0.00,0.00,0.00
-1.00,1.80,0.11,0.00,1.34
-1.00,1.67,-0.02,-0.00,-0.01
-1.00,1.83,0.08,0.00,0.42
-1.00,1.68,-0.10,-0.00,-1.10
-1.00,1.82,0.04,0.00,0.08
-1.00,1.78,-0.06,-0.00,-0.19
-1.00,1.97,0.04,0.00,0.07
-1.00,1.91,-0.08,-0.00,-0.49
-1.00,2.05,0.05,0.00,0.11
-1.00,1.94,-0.05,-0.00,-0.14
-1.00,2.07,0.08,0.00,0.60
-1.00,1.98,-0.03,-0.00,-0.04
-1.00,2.09,0.05,0.00,0.13
-1.00,1.96,-0.06,-0.00,-0.23
-1.00,1.96,0.03,0.00,0.02
-1.00,1.76,-0.04,-0.00,-0.05
-1.00,1.80,0.08,0.00,0.47
-1.00,1.66,-0.04,-0.00,-0.07
-1.00,1.76,0.05,0.00,0.13
-1.00,1.63,-0.08,-0.00,-0.56
-1.00,1.73,0.03,0.00,0.03
-1.00,1.63,-0.06,-0.00,-0.17
-1.00,1.79,0.07,0.00,0.30
-1.00,1.70,-0.06,-0.00,-0.27
-1.00,1.80,0.04,0.00,0.09
-1.00,1.70,-0.04,-0.00,-0.08
-1.00,1.82,0.08,0.00,0.43
-1.00,1.75,-0.04,-0.00,-0.06
-1.00,1.87,0.04,0.00,0.07
-1.00,1.77,-0.06,-0.00,-0.20
-1.00,1.90,0.05,0.00,0.15
-1.00,1.77,-0.07,-0.00,-0.30
-1.00,1.84,0.05,0.00,0.15
-1.00,1.65,-0.06,-0.00,-0.20
-1.00,1.65,0.06,0.00,0.27
-1.00,1.52,-0.01,-0.00,-0.00
-1.00,1.63,0.07,0.00,0.28
-1.00,1.55,-0.07,-0.00,-0.37
-1.00,1.67,0.02,0.00,0.00
-1.00,1.60,-0.07,-0.00,-0.29
-1.00,1.75,0.05,0.00,0.10
-1.00,1.65,-0.06,-0.00,-0.24
-1.00,1.77,0.07,0.00,0.32
-1.00,1.69,-0.03,-0.00,-0.03
-1.00,1.83,0.07,0.00,0.32
-1.00,1.72,-0.06,-0.00,-0.26
-1.00,1.79,0.04,0.00,0.09
-1.00,1.70,-0.04,-0.00,-0.05
-1.00,1.79,0.05,0.00,0.14
-1.00,1.72,-0.04,-0.00,-0.08
-1.00,1.88,0.05,0.00,0.15
-1.00,1.82,-0.07,-0.00,-0.40
-1.00,1.95,0.03,0.00,0.03
-1.00,1.86,-0.06,-0.00,-0.19
-1.00,2.00,0.07,0.00,0.37
-1.00,1.91,-0.05,-0.00,-0.10
-1.00,2.02,0.06,0.00,0.19
-1.00,1.88,-0.06,-0.00,-0.21
-1.00,1.94,0.06,0.00,0.19
-1.00,1.80,-0.04,-0.00,-0.06
-1.00,1.92,0.07,0.00,0.34
-1.00,1.81,-0.07,-0.00,-0.29
-1.00,1.89,0.03,0.00,0.03
-1.00,1.70,-0.08,-0.00,-0.47
-1.00,1.70,0.05,0.00,0.17
-1.00,1.49,-0.03,-0.00,-0.03
-1.00,1.59,0.10,0.00,1.12
-1.00,1.53,-0.04,-0.00,-0.08
-1.00,1.67,0.02,0.00,0.00
-1.00,1.59,-0.09,-0.00,-0.82
-1.00,1.73,0.04,0.00,0.05
-1.00,1.61,-0.06,-0.00,-0.23
-1.00,1.79,0.09,0.00,0.85
-1.00,2.24,0.10,0.00,1.12
-1.00,2.72,-0.04,-0.00,-0.08
-1.00,2.49,-0.31,-0.03,-29.72
-1.00,1.93,-0.10,-0.00,-1.12
-1.00,1.50,0.23,0.01,12.97
-1.00,1.59,0.39,0.06,58.04
-1.00,1.50,-0.00,-0.00,-0.00
-1.00,1.61,-0.08,-0.00,-0.59
-1.00,1.50,-0.22,-0.01,-11.11
-1.00,1.59,-0.05,-0.00,-0.16
-1.00,1.48,-0.08,-0.00,-0.54
-1.00,1.57,0.08,0.00,0.53
-1.00,1.46,-0.00,-0.00,-0.00
-1.00,1.56,0.10,0.00,0.92
-1.00,1.46,-0.03,-0.00,-0.02
-1.00,1.58,0.07,0.00,0.30
-1.00,1.52,-0.05,-0.00,-0.13
-1.00,1.68,0.04,0.00,0.07
-1.00,1.66,-0.06,-0.00,-0.25
-1.00,1.80,0.02,0.00,0.01
-1.00,1.73,-0.06,-0.00,-0.22
-1.00,1.87,0.06,0.00,0.26
-1.00,1.75,-0.05,-0.00,-0.15
-1.00,1.86,0.07,0.00,0.42
-1.00,1.83,-0.02,-0.00,-0.01
-1.00,1.99,0.04,0.00,0.09
-1.00,1.87,-0.09,-0.00,-0.85
-1.00,1.91,0.03,0.00,0.03
-1.00,1.73,-0.04,-0.00,-0.08
-1.00,1.74,0.08,0.00,0.44
-1.00,1.53,-0.03,-0.00,-0.03
-1.00,1.55,0.07,0.00,0.30
-1.00,1.42,-0.04,-0.00,-0.08
-1.00,1.54,0.04,0.00,0.08
-1.00,1.47,-0.08,-0.00,-0.51
-1.00,1.61,0.02,0.00,0.01
-1.00,1.54,-0.07,-0.00,-0.38
-1.00,1.68,0.05,0.00,0.16
-1.00,1.61,-0.04,-0.00,-0.06
-1.00,1.74,0.07,0.00,0.28
-1.00,1.64,-0.04,-0.00,-0.08
-1.00,1.76,0.07,0.00,0.29
-1.00,1.68,-0.04,-0.00,-0.08
-1.00,1.79,0.05,0.00,0.11
-1.00,1.70,-0.06,-0.00,-0.23
-1.00,1.80,0.05,0.00,0.09
-1.00,1.70,-0.06,-0.00,-0.18
-1.00,1.80,0.05,0.00,0.15
-1.00,1.68,-0.05,-0.00,-0.17
-1.00,1.78,0.06,0.00,0.21
-1.00,1.67,-0.05,-0.00,-0.13
-1.00,1.76,0.05,0.00,0.11
-1.00,1.63,-0.06,-0.00,-0.22
-1.00,1.68,0.05,0.00,0.11
-1.00,1.58,-0.03,-0.00,-0.02
-1.00,1.74,0.07,0.00,0.34
-1.00,1.64,-0.08,-0.00,-0.48
-1.00,1.75,0.03,0.00,0.03
-1.00,1.66,-0.06,-0.00,-0.18
-1.00,1.78,0.06,0.00,0.24
-1.00,1.69,-0.05,-0.00,-0.09
-1.00,1.78,0.05,0.00,0.14
-1.00,1.69,-0.04,-0.00,-0.08
-1.00,1.81,0.06,0.00,0.21
-1.00,1.67,-0.07,-0.00,-0.32
-1.00,1.78,0.06,0.00,0.22
-1.00,1.66,-0.05,-0.00,-0.15
-1.00,1.77,0.06,0.00,0.17
-1.00,1.67,-0.05,-0.00,-0.16
-1.00,1.76,0.04,0.00,0.08
-1.00,1.63,-0.06,-0.00,-0.20
-1.00,1.74,0.07,0.00,0.29
-1.00,1.63,-0.05,-0.00,-0.15
-1.00,1.67,0.03,0.00,0.04
-1.00,1.47,-0.06,-0.00,-0.22
-1.00,1.50,0.08,0.00,0.45
-1.00,1.34,-0.03,-0.00,-0.02
-1.00,1.48,0.07,0.00,0.40
-1.00,1.47,-0.05,-0.00,-0.15
-1.00,1.63,-0.00,-0.00,-0.00
-1.00,1.61,-0.08,-0.00,-0.56
-1.00,1.82,0.05,0.00,0.13
-1.00,1.79,-0.05,-0.00,-0.15
-1.00,1.96,0.06,0.00,0.21
-1.00,1.89,-0.04,-0.00,-0.06
-1.00,2.05,0.08,0.00,0.49
-1.00,2.02,-0.03,-0.00,-0.03
-1.00,2.17,0.04,0.00,0.08
-1.00,2.04,-0.08,-0.00,-0.51
-1.00,2.21,0.07,0.00,0.41
-1.00,2.65,0.09,0.00,0.74
-1.00,3.10,-0.06,-0.00,-0.25
-1.00,2.82,-0.32,-0.03,-31.91
-1.00,2.21,-0.09,-0.00,-0.83
-1.00,1.85,0.28,0.02,21.38
-1.00,1.99,0.37,0.05,51.37
-1.00,1.92,-0.03,-0.00,-0.04
-1.00,2.01,-0.11,-0.00,-1.44
-1.00,1.90,-0.21,-0.01,-9.31
-1.00,1.95,-0.05,-0.00,-0.10
-1.00,1.78,-0.06,-0.00,-0.19
-1.00,1.85,0.10,0.00,1.12
-1.00,1.74,0.01,0.00,0.00
-1.00,1.87,0.09,0.00,0.71
-1.00,1.74,-0.06,-0.00,-0.20
-1.00,1.85,0.05,0.00,0.13
-1.00,1.78,-0.05,-0.00,-0.12
-1.00,1.92,0.04,0.00,0.09
-1.00,1.81,-0.07,-0.00,-0.37
-1.00,1.96,0.06,0.00,0.19
-1.00,1.91,-0.04,-0.00,-0.08
-1.00,2.05,0.05,0.00,0.10
-1.00,1.96,-0.06,-0.00,-0.26
-1.00,2.09,0.06,0.00,0.18
-1.00,1.94,-0.06,-0.00,-0.25
-1.00,1.99,0.06,0.00,0.26
-1.00,1.86,-0.03,-0.00,-0.02
-1.00,1.94,0.06,0.00,0.24
-1.00,1.75,-0.08,-0.00,-0.43
-1.00,1.71,0.03,0.00,0.02
-1.00,1.45,-0.04,-0.00,-0.08
-1.00,1.39,0.07,0.00,0.32
-1.00,1.19,-0.02,-0.00,-0.01
-1.00,1.23,0.06,0.00,0.22
-1.00,1.15,-0.05,-0.00,-0.17
-1.00,1.32,0.03,0.00,0.02
-1.00,1.18,-0.13,-0.00,-2.03
-1.00,1.28,0.04,0.00,0.07
-1.00,1.21,-0.01,-0.00,-0.00
-1.00,1.38,0.08,0.00,0.61
-1.00,1.36,-0.04,-0.00,-0.05
-1.00,1.52,0.04,0.00,0.05
-1.00,1.46,-0.06,-0.00,-0.22
-1.00,1.61,0.05,0.00,0.15
-1.00,1.58,-0.04,-0.00,-0.05
-1.00,1.68,0.03,0.00,0.03
-1.00,1.57,-0.05,-0.00,-0.09
-1.00,1.67,0.06,0.00,0.26
-1.00,1.60,-0.03,-0.00,-0.03
-1.00,1.73,0.05,0.00,0.10
-1.00,1.63,-0.07,-0.00,-0.38
-1.00,1.71,0.03,0.00,0.04
-1.00,1.57,-0.05,-0.00,-0.14
-1.00,1.68,0.07,0.00,0.42
-1.00,1.59,-0.04,-0.00,-0.08
-1.00,1.72,0.05,0.00,0.10
-1.00,1.66,-0.06,-0.00,-0.19
-1.00,1.82,0.04,0.00,0.08
-1.00,1.75,-0.06,-0.00,-0.26
-1.00,1.86,0.04,0.00,0.06
-1.00,1.70,-0.06,-0.00,-0.22
-1.00,1.77,0.08,0.00,0.57
-1.00,1.65,-0.02,-0.00,-0.01
-1.00,1.75,0.06,0.00,0.27
-1.00,1.65,-0.06,-0.00,-0.23
-1.00,1.78,0.04,0.00,0.07
-1.00,1.70,-0.07,-0.00,-0.37
-1.00,1.83,0.04,0.00,0.07
-1.00,1.82,-0.04,-0.00,-0.05
-1.00,2.01,0.05,0.00,0.09
-1.00,2.02,-0.05,-0.00,-0.14
-1.00,2.17,0.03,0.00,0.02
-1.00,2.07,-0.06,-0.00,-0.19
-1.00,2.15,0.06,0.00,0.25
-1.00,1.99,-0.03,-0.00,-0.02
-1.00,2.07,0.09,0.00,0.65
-1.00,1.94,-0.04,-0.00,-0.07
-1.00,2.01,0.04,0.00,0.07
-1.00,1.87,-0.07,-0.00,-0.38
-1.00,1.92,0.03,0.00,0.03
-1.00,1.75,-0.06,-0.00,-0.22
-1.00,1.78,0.05,0.00,0.14
-1.00,1.62,-0.04,-0.00,-0.06
-1.00,1.59,0.04,0.00,0.05
-1.00,1.32,-0.05,-0.00,-0.15
-1.00,1.28,0.07,0.00,0.38
-1.00,0.98,-0.05,-0.00,-0.10
-1.00,0.87,0.05,0.00,0.16
-1.00,0.99,0.08,0.00,0.44
-1.00,1.43,0.05,0.00,0.11
-1.00,1.10,-0.34,-0.04,-38.80
-1.00,0.50,-0.15,-0.00,-3.20
-1.00,0.13,0.22,0.01,10.38
-1.00,0.10,0.30,0.03,25.98
-1.00,0.05,0.05,0.00,0.10
-1.00,0.15,-0.07,-0.00,-0.31
-1.00,0.04,-0.20,-0.01,-7.65
-1.00,0.01,-0.07,-0.00,-0.36
-1.00,0.00,0.00,0.00,0.00
-1.00,0.00,0.04,0.00,0.05
-1.00,0.00,0.04,0.00,0.05
-1.00,0.00,0.03,0.00,0.02
-1.00,0.00,0.01,0.00,0.00
-1.00,0.00,0.00,0.00,0.00
-1.00,0.00,-0.00,-0.00,-0.00
-1.00,0.00,-0.00,-0.00,-0.00
-1.00,0.00,-0.01,-0.00,-0.00
-1.00,0.00,-0.00,-0.00,-0.00
-1.00,0.00,-0.00,-0.00,-0.00
-1.00,0.00,-0.00,-0.00,-0.00
-1.00,0.00,-0.00,-0.00,-0.00
-1.00,0.00,0.00,0.00,0.00
-1.00,0.00,0.00,0.00,0.00
-1.00,0.00,0.00,0.00,0.00
-1.00,0.00,0.00,0.00,0.00
-1.00,0.00,0.00,0.00,0.00
-1.00,0.00,0.00,0.00,0.00
-1.00,0.00,0.00,0.00,0.00
-1.00,0.00,-0.00,-0.00,-0.00
-1.00,0.00,-0.00,-0.00,-0.00
-1.00,0.00,-0.00,-0.00,-0.00
-1.00,0.04,0.01,0.00,0.00
-1.00,0.10,0.00,0.00,0.00
-1.00,0.51,0.09,0.00,0.72
-1.00,0.65,-0.12,-0.00,-1.83
-1.00,0.95,-0.03,-0.00,-0.02
-1.00,0.99,-0.08,-0.00,-0.52
-1.00,1.28,0.10,0.00,0.98
-1.00,1.34,-0.01,-0.00,-0.00
-1.00,1.92,0.17,0.01,5.23
-1.00,3.08,0.15,0.00,3.71
-1.00,4.53,-0.08,-0.00,-0.50
-1.00,4.91,-0.57,-0.18,-183.04
-1.00,4.99,-0.20,-0.01,-8.30
-1.00,5.00,0.23,0.01,11.84
-1.00,5.00,0.36,0.05,45.46
-1.00,4.99,0.24,0.01,13.68
-1.00,5.00,0.07,0.00,0.30
-1.00,5.00,-0.08,-0.00,-0.48
-1.00,4.99,-0.14,-0.00,-2.57
-1.00,4.82,-0.17,-0.00,-4.60
-1.00,4.73,-0.03,-0.00,-0.04
-1.00,4.35,-0.08,-0.00,-0.43
-1.00,4.20,0.12,0.00,1.54
-1.00,3.83,0.00,0.00,0.00
-1.00,3.73,0.11,0.00,1.25
-1.00,3.44,-0.05,-0.00,-0.11
-1.00,3.42,0.04,0.00,0.06
-1.00,3.17,-0.09,-0.00,-0.83
-1.00,3.22,0.05,0.00,0.11
-1.00,3.08,-0.07,-0.00,-0.29
-1.00,4.13,0.32,0.03,31.79
-1.00,4.89,-0.17,-0.01,-5.16
-1.00,4.97,-0.43,-0.08,-77.95
-1.00,5.00,-0.07,-0.00,-0.28
-1.00,5.00,0.20,0.01,7.60
-1.00,5.00,0.24,0.01,14.45
-1.00,5.00,0.15,0.00,3.11
-1.00,5.00,0.03,0.00,0.03
-1.00,5.00,-0.05,-0.00,-0.15
-1.00,5.00,-0.08,-0.00,-0.61
-1.00,4.91,-0.10,-0.00,-0.97
-1.00,4.57,-0.11,-0.00,-1.36
-1.00,4.43,0.08,0.00,0.56
-1.00,4.09,0.01,0.00,0.00
-1.00,3.93,0.09,0.00,0.71
-1.00,3.55,-0.05,-0.00,-0.12
-1.00,3.35,0.04,0.00,0.06
-1.00,2.98,-0.05,-0.00,-0.15
-1.00,2.83,0.05,0.00,0.12
-1.00,2.55,-0.05,-0.00,-0.12
-1.00,2.47,0.03,0.00,0.03
-1.00,2.24,-0.06,-0.00,-0.24
-1.00,2.22,0.04,0.00,0.06
-1.00,2.01,-0.06,-0.00,-0.17
-1.00,2.00,0.05,0.00,0.14
-1.00,2.18,0.07,0.00,0.34
-1.00,2.78,0.09,0.00,0.67
-1.00,2.58,-0.33,-0.03,-34.69
-1.00,2.06,-0.16,-0.00,-3.96
-1.00,1.45,0.13,0.00,2.10
-1.00,1.52,0.44,0.08,82.66
-1.00,1.50,0.09,0.00,0.64
-1.00,1.66,-0.07,-0.00,-0.38
-1.00,1.58,-0.25,-0.02,-16.13
-1.00,1.70,-0.08,-0.00,-0.45
-1.00,1.60,-0.09,-0.00,-0.70
-1.00,1.72,0.09,0.00,0.72
-1.00,1.62,0.01,0.00,0.00
-1.00,1.76,0.11,0.00,1.24
-1.00,1.68,-0.03,-0.00,-0.02
-1.00,1.80,0.06,0.00,0.18
-1.00,1.70,-0.06,-0.00,-0.27
-1.00,1.81,0.04,0.00,0.09
-1.00,1.73,-0.05,-0.00,-0.14
-1.00,1.85,0.05,0.00,0.10
-1.00,1.76,-0.06,-0.00,-0.20
-1.00,1.90,0.05,0.00,0.13
-1.00,1.84,-0.05,-0.00,-0.15
-1.00,1.97,0.05,0.00,0.09
-1.00,1.89,-0.05,-0.00,-0.17
-1.00,2.00,0.05,0.00,0.16
-1.00,1.89,-0.05,-0.00,-0.14
-1.00,1.95,0.05,0.00,0.14
-1.00,1.76,-0.05,-0.00,-0.12
-1.00,1.76,0.06,0.00,0.25
-1.00,1.58,-0.03,-0.00,-0.03
-1.00,1.63,0.07,0.00,0.29
-1.00,1.51,-0.06,-0.00,-0.17
-1.00,1.56,0.02,0.00,0.01
-1.00,1.48,-0.05,-0.00,-0.14
-1.00,1.62,0.04,0.00,0.08
-1.00,1.55,-0.07,-0.00,-0.31
-1.00,1.69,0.04,0.00,0.08
-1.00,1.60,-0.05,-0.00,-0.13
-1.00,1.72,0.07,0.00,0.28
-1.00,1.62,-0.04,-0.00,-0.05
-1.00,1.74,0.06,0.00,0.27
-1.00,1.65,-0.05,-0.00,-0.11
-1.00,1.77,0.05,0.00,0.15
-1.00,1.69,-0.06,-0.00,-0.22
-1.00,1.80,0.04,0.00,0.08
-1.00,1.69,-0.06,-0.00,-0.21
-1.00,1.78,0.05,0.00,0.14
-1.00,1.68,-0.04,-0.00,-0.08
-1.00,1.80,0.06,0.00,0.23
-1.00,1.73,-0.05,-0.00,-0.14
-1.00,1.81,0.03,0.00,0.03
-1.00,1.74,-0.04,-0.00,-0.09
-1.00,1.87,0.06,0.00,0.17
-1.00,1.77,-0.06,-0.00,-0.22
-1.00,1.87,0.05,0.00,0.10
-1.00,1.74,-0.05,-0.00,-0.15
-1.00,1.83,0.07,0.00,0.32
-1.00,1.74,-0.04,-0.00,-0.06
-1.00,1.83,0.04,0.00,0.08
-1.00,1.72,-0.06,-0.00,-0.22
-1.00,1.81,0.05,0.00,0.12
-1.00,1.69,-0.05,-0.00,-0.14
-1.00,1.75,0.05,0.00,0.09
-1.00,1.62,-0.05,-0.00,-0.10
-1.00,1.75,0.08,0.00,0.44
-1.00,1.67,-0.06,-0.00,-0.18
-1.00,1.79,0.04,0.00,0.05
-1.00,1.71,-0.06,-0.00,-0.23
-1.00,1.82,0.04,0.00,0.08
-1.00,1.73,-0.05,-0.00,-0.12
-1.00,1.83,0.06,0.00,0.22
-1.00,1.72,-0.05,-0.00,-0.11
-1.00,1.84,0.07,0.00,0.31
-1.00,1.75,-0.05,-0.00,-0.13
-1.00,1.87,0.04,0.00,0.09
-1.00,1.78,-0.06,-0.00,-0.20
-1.00,1.90,0.05,0.00,0.10
-1.00,1.79,-0.06,-0.00,-0.20
-1.00,1.95,0.07,0.00,0.36
-1.00,1.92,-0.04,-0.00,-0.09
-1.00,2.00,0.01,0.00,0.00
-1.00,1.87,-0.06,-0.00,-0.21
-1.00,1.92,0.06,0.00,0.24
-1.00,1.76,-0.03,-0.00,-0.02
-1.00,1.81,0.07,0.00,0.34
-1.00,1.69,-0.04,-0.00,-0.07
-1.00,1.78,0.05,0.00,0.09
-1.00,1.68,-0.07,-0.00,-0.31
-1.00,1.77,0.03,0.00,0.03
-1.00,1.61,-0.07,-0.00,-0.41
-1.00,1.73,0.07,0.00,0.41
-1.00,2.15,0.11,0.00,1.26
-1.00,2.62,-0.04,-0.00,-0.07
-1.00,2.34,-0.33,-0.03,-34.36
-1.00,1.70,-0.11,-0.00,-1.51
-1.00,1.32,0.28,0.02,22.82
-1.00,1.48,0.39,0.06,59.77
-1.00,1.46,-0.02,-0.00,-0.01
-1.00,1.58,-0.12,-0.00,-1.90
-1.00,1.49,-0.23,-0.01,-11.85
-1.00,1.61,-0.04,-0.00,-0.05
-1.00,1.54,-0.05,-0.00,-0.16
-1.00,1.65,0.08,0.00,0.50
-1.00,1.61,0.01,0.00,0.00
-1.00,1.72,0.07,0.00,0.41
-1.00,1.67,-0.02,-0.00,-0.01
-1.00,1.81,0.06,0.00,0.17
-1.00,1.76,-0.05,-0.00,-0.17
-1.00,1.90,0.03,0.00,0.04
-1.00,1.83,-0.06,-0.00,-0.23
-1.00,1.96,0.05,0.00,0.11
-1.00,1.90,-0.05,-0.00,-0.10
-1.00,2.04,0.05,0.00,0.15
-1.00,1.97,-0.05,-0.00,-0.16
-1.00,2.08,0.05,0.00,0.09
-1.00,1.99,-0.05,-0.00,-0.11
-1.00,2.07,0.05,0.00,0.12
-1.00,1.91,-0.06,-0.00,-0.17
-1.00,1.88,0.04,0.00,0.07
-1.00,1.65,-0.03,-0.00,-0.02
-1.00,1.64,0.08,0.00,0.46
-1.00,1.50,-0.03,-0.00,-0.02
-1.00,1.51,0.02,0.00,0.01
-1.00,1.36,-0.07,-0.00,-0.30
-1.00,1.39,0.03,0.00,0.02
-1.00,1.34,-0.03,-0.00,-0.02
-1.00,1.52,0.05,0.00,0.14
-1.00,1.54,-0.06,-0.00,-0.23
-1.00,1.73,0.02,0.00,0.01
-1.00,1.68,-0.07,-0.00,-0.35
-1.00,1.81,0.06,0.00,0.20
-1.00,1.72,-0.02,-0.00,-0.01
-1.00,1.84,0.08,0.00,0.60
-1.00,1.75,-0.03,-0.00,-0.03
-1.00,1.86,0.05,0.00,0.11
-1.00,1.78,-0.06,-0.00,-0.19
-1.00,1.88,0.03,0.00,0.03
-1.00,1.79,-0.06,-0.00,-0.17
-1.00,1.89,0.04,0.00,0.06
-1.00,1.80,-0.05,-0.00,-0.13
-1.00,1.90,0.05,0.00,0.13
-1.00,1.80,-0.05,-0.00,-0.11
-1.00,1.90,0.05,0.00,0.14
-1.00,1.79,-0.05,-0.00,-0.12
-1.00,1.88,0.05,0.00,0.12
-1.00,1.77,-0.04,-0.00,-0.09
-1.00,1.85,0.05,0.00,0.11
-1.00,1.74,-0.05,-0.00,-0.11
-1.00,1.83,0.05,0.00,0.14
-1.00,1.74,-0.05,-0.00,-0.10
-1.00,1.87,0.05,0.00,0.09
-1.00,1.78,-0.06,-0.00,-0.24
-1.00,1.87,0.04,0.00,0.06
-1.00,1.77,-0.05,-0.00,-0.09
-1.00,1.86,0.06,0.00,0.18
-1.00,1.72,-0.05,-0.00,-0.12
-1.00,1.83,0.07,0.00,0.37
-1.00,1.75,-0.04,-0.00,-0.09
-1.00,1.88,0.04,0.00,0.06
-1.00,1.76,-0.07,-0.00,-0.40
-1.00,1.85,0.04,0.00,0.09
-1.00,1.75,-0.04,-0.00,-0.06
-1.00,1.87,0.06,0.00,0.23
-1.00,1.80,-0.04,-0.00,-0.08
-1.00,1.89,0.03,0.00,0.04
-1.00,1.79,-0.05,-0.00,-0.15
-1.00,1.81,0.03,0.00,0.03
-1.00,1.67,-0.03,-0.00,-0.02
-1.00,1.82,0.10,0.00,0.94
-1.00,1.74,-0.06,-0.00,-0.22
-1.00,1.85,0.02,0.00,0.01
-1.00,1.76,-0.07,-0.00,-0.28
-1.00,1.86,0.04,0.00,0.07
-1.00,1.81,-0.03,-0.00,-0.02
-1.00,1.92,0.04,0.00,0.09
-1.00,1.80,-0.06,-0.00,-0.20
-1.00,1.83,0.04,0.00,0.09
-1.00,1.73,-0.01,-0.00,-0.00
-1.00,1.76,0.05,0.00,0.11
-1.00,1.69,-0.03,-0.00,-0.02
-1.00,1.80,0.04,0.00,0.07
-1.00,1.74,-0.07,-0.00,-0.30
-1.00,1.83,0.02,0.00,0.01
-1.00,1.74,-0.05,-0.00,-0.15
-1.00,2.26,0.18,0.01,5.59
-1.00,2.60,-0.07,-0.00,-0.38
-1.00,2.62,-0.19,-0.01,-7.39
-1.00,1.90,-0.23,-0.01,-12.13
-1.00,1.58,0.27,0.02,20.02
-1.00,1.53,0.33,0.03,34.33
-1.00,1.72,0.13,0.00,2.05
-1.00,1.66,-0.20,-0.01,-8.08
-1.00,1.76,-0.14,-0.00,-2.59
-1.00,1.68,-0.15,-0.00,-3.25
-1.00,1.79,0.03,0.00,0.02
-1.00,1.71,-0.01,-0.00,-0.00
-1.00,1.82,0.10,0.00,0.99
-1.00,1.76,0.00,0.00,0.00
-1.00,1.89,0.06,0.00,0.27
-1.00,1.81,-0.05,-0.00,-0.11
-1.00,1.93,0.04,0.00,0.07
-1.00,1.89,-0.04,-0.00,-0.07
-1.00,2.00,0.03,0.00,0.02
-1.00,1.92,-0.06,-0.00,-0.20
-1.00,2.03,0.05,0.00,0.14
-1.00,1.96,-0.04,-0.00,-0.08
-1.00,2.05,0.04,0.00,0.08
-1.00,1.96,-0.05,-0.00,-0.10
-1.00,1.99,0.04,0.00,0.05
-1.00,1.79,-0.05,-0.00,-0.13
-1.00,1.74,0.05,0.00,0.13
-1.00,1.51,-0.02,-0.00,-0.01
-1.00,1.46,0.06,0.00,0.27
-1.00,1.21,-0.05,-0.00,-0.14
-1.00,1.16,0.04,0.00,0.06
-1.00,1.07,-0.02,-0.00,-0.01
-1.00,1.15,0.02,0.00,0.01
-1.00,1.16,-0.06,-0.00,-0.18
-1.00,1.39,0.02,0.00,0.01
-1.00,1.47,-0.07,-0.00,-0.32
-1.00,1.74,0.03,0.00,0.03
-1.00,1.82,-0.05,-0.00,-0.09
-1.00,2.04,0.05,0.00,0.13
-1.00,2.05,-0.02,-0.00,-0.01
-1.00,2.20,0.07,0.00,0.34
-1.00,2.17,-0.01,-0.00,-0.00
-1.00,2.31,0.06,0.00,0.22
-1.00,2.21,-0.06,-0.00,-0.22
-1.00,2.29,0.04,0.00,0.07
-1.00,2.16,-0.05,-0.00,-0.15
-1.00,2.20,0.04,0.00,0.06
-1.00,2.05,-0.05,-0.00,-0.11
-1.00,2.11,0.05,0.00,0.12
-1.00,2.00,-0.04,-0.00,-0.08
-1.00,2.07,0.03,0.00,0.04
-1.00,1.97,-0.06,-0.00,-0.17
-1.00,2.04,0.04,0.00,0.05
-1.00,1.94,-0.05,-0.00,-0.09
-1.00,1.99,0.05,0.00,0.10
-1.00,1.86,-0.04,-0.00,-0.07
-1.00,1.90,0.06,0.00,0.17
-1.00,1.76,-0.04,-0.00,-0.05
-1.00,1.79,0.04,0.00,0.09
-1.00,1.62,-0.05,-0.00,-0.13
-1.00,1.69,0.06,0.00,0.23
-1.00,1.65,-0.02,-0.00,-0.01
-1.00,1.81,0.03,0.00,0.02
-1.00,1.74,-0.09,-0.00,-0.85
-1.00,1.89,0.04,0.00,0.05
-1.00,1.87,-0.03,-0.00,-0.04
-1.00,1.97,0.04,0.00,0.05
-1.00,1.91,-0.03,-0.00,-0.02
-1.00,2.01,0.06,0.00,0.21
-1.00,1.91,-0.04,-0.00,-0.05
-1.00,2.00,0.06,0.00,0.18
-1.00,1.94,-0.04,-0.00,-0.05
-1.00,2.07,0.04,0.00,0.09
-1.00,2.02,-0.06,-0.00,-0.27
-1.00,2.12,0.02,0.00,0.01
-1.00,2.05,-0.05,-0.00,-0.12
-1.00,2.14,0.05,0.00,0.10
-1.00,2.03,-0.04,-0.00,-0.05
-1.00,2.08,0.05,0.00,0.12
-1.00,1.98,-0.03,-0.00,-0.02
-1.00,2.08,0.06,0.00,0.19
-1.00,2.03,-0.04,-0.00,-0.08
-1.00,2.09,0.01,0.00,0.00
-1.00,1.96,-0.06,-0.00,-0.24
-1.00,1.96,0.04,0.00,0.05
-1.00,1.81,-0.02,-0.00,-0.00
-1.00,1.87,0.08,0.00,0.43
-1.00,1.76,-0.04,-0.00,-0.06
-1.00,1.85,0.04,0.00,0.05
-1.00,1.75,-0.07,-0.00,-0.29
-1.00,1.79,0.02,0.00,0.01
-1.00,1.72,-0.03,-0.00,-0.03
-1.00,2.29,0.19,0.01,6.47
-1.00,2.59,-0.11,-0.00,-1.46
-1.00,2.44,-0.25,-0.01,-14.91
-1.00,1.63,-0.19,-0.01,-6.70
-1.00,1.44,0.38,0.05,54.17
-1.00,1.47,0.31,0.03,29.66
-1.00,1.66,0.05,0.00,0.12
-1.00,1.62,-0.24,-0.01,-13.14
-1.00,1.76,-0.13,-0.00,-2.21
-1.00,1.73,-0.13,-0.00,-1.95
-1.00,1.88,0.04,0.00,0.08
-1.00,1.87,0.00,0.00,0.00
-1.00,1.99,0.08,0.00,0.57
-1.00,1.96,0.00,0.00,0.00
-1.00,2.09,0.07,0.00,0.34
-1.00,2.02,-0.04,-0.00,-0.07
-1.00,2.12,0.04,0.00,0.05
-1.00,2.05,-0.05,-0.00,-0.10
-1.00,2.12,0.03,0.00,0.03
-1.00,2.04,-0.04,-0.00,-0.08
-1.00,2.12,0.04,0.00,0.06
-1.00,2.04,-0.04,-0.00,-0.08
-1.00,2.10,0.03,0.00,0.02
-1.00,1.98,-0.04,-0.00,-0.08
-1.00,2.00,0.04,0.00,0.07
-1.00,1.88,-0.03,-0.00,-0.02
-1.00,1.92,0.05,0.00,0.10
-1.00,1.74,-0.05,-0.00,-0.16
-1.00,1.68,0.03,0.00,0.02
-1.00,1.48,-0.02,-0.00,-0.01
-1.00,1.43,0.05,0.00,0.16
-1.00,1.27,-0.02,-0.00,-0.01
-1.00,1.25,0.03,0.00,0.02
-1.00,1.13,-0.04,-0.00,-0.07
-1.00,1.25,0.04,0.00,0.08
-1.00,1.20,-0.07,-0.00,-0.31
-1.00,1.31,0.02,0.00,0.00
-1.00,1.26,-0.05,-0.00,-0.14
-1.00,1.39,0.05,0.00,0.16
-1.00,1.36,-0.02,-0.00,-0.01
-1.00,1.45,0.04,0.00,0.07
-1.00,1.39,-0.03,-0.00,-0.02
-1.00,1.49,0.05,0.00,0.15
-1.00,1.45,-0.03,-0.00,-0.03
-1.00,1.54,0.03,0.00,0.03
-1.00,1.47,-0.05,-0.00,-0.14
-1.00,1.56,0.04,0.00,0.06
-1.00,1.49,-0.04,-0.00,-0.07
-1.00,1.58,0.04,0.00,0.08
-1.00,1.52,-0.04,-0.00,-0.06
-1.00,1.63,0.04,0.00,0.09
-1.00,1.56,-0.05,-0.00,-0.12
-1.00,1.65,0.04,0.00,0.04
-1.00,1.60,-0.03,-0.00,-0.03
-1.00,1.71,0.04,0.00,0.08
-1.00,1.66,-0.04,-0.00,-0.09
-1.00,1.75,0.04,0.00,0.04
-1.00,1.71,-0.03,-0.00,-0.04
-1.00,1.81,0.04,0.00,0.06
-1.00,1.78,-0.03,-0.00,-0.04
-1.00,1.89,0.04,0.00,0.04
-1.00,1.85,-0.04,-0.00,-0.07
-1.00,1.92,0.03,0.00,0.02
-1.00,1.79,-0.05,-0.00,-0.10
-1.00,1.88,0.07,0.00,0.34
-1.00,1.81,-0.02,-0.00,-0.01
-1.00,1.90,0.03,0.00,0.03
-1.00,1.83,-0.05,-0.00,-0.12
-1.00,1.93,0.03,0.00,0.02
-1.00,1.84,-0.05,-0.00,-0.13
-1.00,1.87,0.03,0.00,0.02
-1.00,1.76,-0.02,-0.00,-0.01
-1.00,1.81,0.06,0.00,0.18
-1.00,1.73,-0.02,-0.00,-0.01
-1.00,1.81,0.04,0.00,0.05
-1.00,1.74,-0.05,-0.00,-0.16
-1.00,1.79,0.02,0.00,0.01
-1.00,1.71,-0.04,-0.00,-0.05
-1.00,1.76,0.04,0.00,0.06
-1.00,1.67,-0.03,-0.00,-0.03
-1.00,1.80,0.06,0.00,0.26
-1.00,1.78,-0.04,-0.00,-0.06
-1.00,1.88,0.01,0.00,0.00
-1.00,1.77,-0.07,-0.00,-0.29
-1.00,1.80,0.04,0.00,0.07
-1.00,1.71,-0.00,-0.00,-0.00
-1.00,1.77,0.06,0.00,0.23
-1.00,1.68,-0.04,-0.00,-0.07
-1.00,1.75,0.03,0.00,0.04
-1.00,1.65,-0.06,-0.00,-0.18
-1.00,1.59,0.00,0.00,0.00
-1.00,1.46,-0.01,-0.00,-0.00
-1.00,2.05,0.22,0.01,10.89
-1.00,2.45,-0.10,-0.00,-0.88
-1.00,2.40,-0.28,-0.02,-21.75
-1.00,1.69,-0.24,-0.01,-12.99
-1.00,1.43,0.31,0.03,28.40
-1.00,1.40,0.33,0.04,35.07
-1.00,1.57,0.12,0.00,1.55
-1.00,1.50,-0.19,-0.01,-7.31
-1.00,1.59,-0.12,-0.00,-1.78
-1.00,1.53,-0.13,-0.00,-2.15
-1.00,1.62,0.02,0.00,0.01
-1.00,1.54,-0.02,-0.00,-0.00
-1.00,1.64,0.09,0.00,0.71
-1.00,1.60,0.01,0.00,0.00
-1.00,1.72,0.06,0.00,0.22
-1.00,1.69,-0.04,-0.00,-0.05
-1.00,1.80,0.03,0.00,0.02
-1.00,1.77,-0.04,-0.00,-0.09
-1.00,1.91,0.03,0.00,0.04
-1.00,1.89,-0.05,-0.00,-0.10
-1.00,1.99,0.03,0.00,0.02
-1.00,1.96,-0.03,-0.00,-0.04
-1.00,2.09,0.05,0.00,0.13
-1.00,2.04,-0.04,-0.00,-0.08
-1.00,2.08,0.02,0.00,0.01
-1.00,1.97,-0.03,-0.00,-0.03
-1.00,1.99,0.05,0.00,0.13
-1.00,1.85,-0.03,-0.00,-0.02
-1.00,1.82,0.03,0.00,0.03
-1.00,1.64,-0.03,-0.00,-0.04
-1.00,1.64,0.05,0.00,0.13
-1.00,1.52,-0.03,-0.00,-0.04
-1.00,1.49,0.00,0.00,0.00
-1.00,1.33,-0.04,-0.00,-0.09
-1.00,1.40,0.06,0.00,0.19
-1.00,1.35,-0.03,-0.00,-0.04
-1.00,1.45,0.02,0.00,0.01
-1.00,1.41,-0.05,-0.00,-0.15
-1.00,1.52,0.03,0.00,0.04
-1.00,1.52,-0.02,-0.00,-0.01
-1.00,1.62,0.03,0.00,0.02
-1.00,1.59,-0.03,-0.00,-0.02
-1.00,1.67,0.04,0.00,0.06
-1.00,1.65,-0.02,-0.00,-0.00
-1.00,1.75,0.04,0.00,0.06
-1.00,1.68,-0.05,-0.00,-0.13
-1.00,1.74,0.03,0.00,0.03
-1.00,1.68,-0.02,-0.00,-0.01
-1.00,1.76,0.04,0.00,0.08
-1.00,1.70,-0.04,-0.00,-0.07
-1.00,1.79,0.03,0.00,0.03
-1.00,1.74,-0.04,-0.00,-0.09
-1.00,1.80,0.03,0.00,0.02
-1.00,1.71,-0.04,-0.00,-0.06
-1.00,1.76,0.04,0.00,0.08
-1.00,1.65,-0.03,-0.00,-0.02
-1.00,1.71,0.05,0.00,0.12
-1.00,1.60,-0.04,-0.00,-0.07
-1.00,1.65,0.03,0.00,0.04
-1.00,1.56,-0.04,-0.00,-0.05
-1.00,1.62,0.03,0.00,0.04
-1.00,1.53,-0.05,-0.00,-0.09
-1.00,1.60,0.04,0.00,0.05
-1.00,1.48,-0.05,-0.00,-0.12
-1.00,1.56,0.06,0.00,0.19
-1.00,1.53,-0.02,-0.00,-0.01
-1.00,1.64,0.03,0.00,0.02
-1.00,1.61,-0.05,-0.00,-0.14
-1.00,1.71,0.03,0.00,0.02
-1.00,1.69,-0.03,-0.00,-0.03
-1.00,1.80,0.04,0.00,0.07
-1.00,1.77,-0.03,-0.00,-0.04
-1.00,1.79,0.01,0.00,0.00
-1.00,1.59,-0.05,-0.00,-0.10
-1.00,1.18,-0.03,-0.00,-0.03
-1.00,0.37,-0.04,-0.00,-0.09
-1.00,0.08,0.27,0.02,20.54
-1.00,0.01,0.15,0.00,3.62
-1.00,0.00,-0.08,-0.00,-0.52
-1.00,0.00,-0.18,-0.01,-6.13
-1.00,0.00,-0.15,-0.00,-3.44
-1.00,0.00,-0.06,-0.00,-0.21
-1.00,0.00,0.02,0.00,0.01
-1.00,0.00,0.06,0.00,0.26
-1.00,0.00,0.07,0.00,0.30
-1.00,0.00,0.05,0.00,0.11
-1.00,0.00,0.02,0.00,0.01
-1.00,0.00,0.00,0.00,0.00
-1.00,0.01,-0.01,-0.00,-0.00
-1.00,0.00,-0.02,-0.00,-0.01
-1.00,0.00,-0.01,-0.00,-0.00
-1.00,0.11,0.03,0.00,0.02
-1.00,0.94,0.19,0.01,6.73
-1.00,1.62,-0.13,-0.00,-2.44
-1.00,1.73,-0.35,-0.04,-43.38
-1.00,1.87,-0.03,-0.00,-0.03
-1.00,2.47,0.29,0.02,23.75
-1.00,2.76,0.04,0.00,0.07
-1.00,3.15,0.04,0.00,0.07
-1.00,3.42,-0.03,-0.00,-0.03
-1.00,3.91,0.05,0.00,0.15
-1.00,4.60,0.04,0.00,0.04
-1.00,4.93,-0.18,-0.01,-5.60
-1.00,4.99,-0.14,-0.00,-2.81
-1.00,5.00,0.05,0.00,0.13
-1.00,4.99,0.13,0.00,2.45
-1.00,5.00,0.11,0.00,1.37
-1.00,4.99,0.03,0.00,0.03
-1.00,4.83,-0.07,-0.00,-0.38
-1.00,4.49,-0.09,-0.00,-0.85
-1.00,4.28,0.04,0.00,0.06
-1.00,3.96,-0.00,-0.00,-0.00
-1.00,3.91,0.08,0.00,0.44
-1.00,3.95,0.01,0.00,0.00
-1.00,4.09,-0.06,-0.00,-0.17
-1.00,4.04,-0.15,-0.00,-3.09
-1.00,4.00,-0.04,-0.00,-0.05
-1.00,3.77,-0.01,-0.00,-0.00
-1.00,3.59,0.10,0.00,1.00
-1.00,3.22,0.04,0.00,0.09
-1.00,2.96,0.10,0.00,0.94
-1.00,2.62,0.02,0.00,0.00
-1.00,2.47,0.03,0.00,0.04
-1.00,2.22,-0.07,-0.00,-0.39
-1.00,2.11,-0.03,-0.00,-0.04
-1.00,1.89,-0.08,-0.00,-0.42
-1.00,1.85,0.02,0.00,0.01
-1.00,1.72,-0.03,-0.00,-0.02
-1.00,1.72,0.03,0.00,0.03
-1.00,1.61,-0.02,-0.00,-0.01
-1.00,1.65,0.05,0.00,0.10
-1.00,1.53,-0.03,-0.00,-0.03
-1.00,1.56,0.04,0.00,0.07
-1.00,1.48,-0.02,-0.00,-0.01
-1.00,1.53,0.04,0.00,0.06
-1.00,1.45,-0.04,-0.00,-0.06
-1.00,1.51,0.03,0.00,0.02
-1.00,1.42,-0.04,-0.00,-0.07
-1.00,1.47,0.03,0.00,0.04
-1.00,1.38,-0.03,-0.00,-0.04
-1.00,1.44,0.04,0.00,0.05
-1.00,1.38,-0.03,-0.00,-0.02
-1.00,1.43,0.02,0.00,0.02
-1.00,1.38,-0.03,-0.00,-0.03
-1.00,1.46,0.03,0.00,0.03
-1.00,1.39,-0.04,-0.00,-0.08
-1.00,1.50,0.04,0.00,0.08
-1.00,1.43,-0.04,-0.00,-0.08
-1.00,1.52,0.04,0.00,0.07
-1.00,1.46,-0.04,-0.00,-0.06
-1.00,1.51,0.03,0.00,0.03
-1.00,1.44,-0.02,-0.00,-0.02
-1.00,1.50,0.04,0.00,0.06
-1.00,1.44,-0.03,-0.00,-0.02
-1.00,1.51,0.03,0.00,0.03
-1.00,1.41,-0.05,-0.00,-0.15
-1.00,1.45,0.03,0.00,0.04
-1.00,1.44,-0.00,-0.00,-0.00
-1.00,1.55,0.03,0.00,0.02
-1.00,1.53,-0.05,-0.00,-0.15
-1.00,1.58,0.00,0.00,0.00
-1.00,1.50,-0.03,-0.00,-0.03
-1.00,1.53,0.05,0.00,0.12
-1.00,1.46,-0.01,-0.00,-0.00
-1.00,1.56,0.06,0.00,0.19
-1.00,1.52,-0.04,-0.00,-0.09
-1.00,1.56,0.00,0.00,0.00
-1.00,1.48,-0.04,-0.00,-0.07
-1.00,1.52,0.03,0.00,0.04
-1.00,1.43,-0.02,-0.00,-0.01
-1.00,1.54,0.06,0.00,0.21
-1.00,1.45,-0.05,-0.00,-0.16
-1.00,1.54,0.03,0.00,0.04
-1.00,1.48,-0.04,-0.00,-0.06
-1.00,1.56,0.03,0.00,0.03
-1.00,1.50,-0.04,-0.00,-0.04
-1.00,1.82,0.11,0.00,1.30
-1.00,2.42,0.06,0.00,0.23
-1.00,2.57,-0.23,-0.01,-12.23
-1.00,1.96,-0.30,-0.03,-27.56
-1.00,1.43,0.14,0.00,2.71
-1.00,1.37,0.41,0.07,70.99
-1.00,1.60,0.23,0.01,11.72
-1.00,1.62,-0.17,-0.00,-4.70
-1.00,1.73,-0.18,-0.01,-5.86
-1.00,1.70,-0.17,-0.01,-5.07
-1.00,1.73,-0.02,-0.00,-0.01
-1.00,1.69,0.02,0.00,0.01
-1.00,1.81,0.11,0.00,1.35
-1.00,1.80,0.01,0.00,0.00
-1.00,1.89,0.04,0.00,0.06
-1.00,1.88,-0.03,-0.00,-0.02
-1.00,1.97,0.02,0.00,0.01
-1.00,1.94,-0.04,-0.00,-0.08
-1.00,2.03,0.03,0.00,0.03
-1.00,2.02,-0.03,-0.00,-0.02
-1.00,2.11,0.02,0.00,0.01
-1.00,2.08,-0.04,-0.00,-0.05
-1.00,2.06,0.00,0.00,0.00
-1.00,1.95,-0.01,-0.00,-0.00
-1.00,2.02,0.08,0.00,0.48
-1.00,1.98,-0.02,-0.00,-0.01
-1.00,2.03,0.00,0.00,0.00
-1.00,1.93,-0.06,-0.00,-0.19
-1.00,1.90,0.01,0.00,0.00
-1.00,1.73,-0.02,-0.00,-0.01
-1.00,1.69,0.06,0.00,0.23
-1.00,1.53,-0.01,-0.00,-0.00
-1.00,1.52,0.04,0.00,0.06
-1.00,1.44,-0.03,-0.00,-0.02
-1.00,1.46,0.01,0.00,0.00
-1.00,1.41,-0.04,-0.00,-0.07
-1.00,1.49,0.02,0.00,0.01
-1.00,1.44,-0.04,-0.00,-0.07
-1.00,1.52,0.03,0.00,0.03
-1.00,1.39,-0.05,-0.00,-0.10
-1.00,1.38,0.05,0.00,0.11
-1.00,1.23,-0.01,-0.00,-0.00
-1.00,1.25,0.07,0.00,0.30
-1.00,1.17,-0.02,-0.00,-0.01
-1.00,1.30,0.04,0.00,0.05
-1.00,1.36,-0.05,-0.00,-0.12
-1.00,1.56,-0.01,-0.00,-0.00
-1.00,1.67,-0.06,-0.00,-0.21
-1.00,1.92,0.02,0.00,0.01
-1.00,2.02,-0.04,-0.00,-0.07
-1.00,2.17,0.02,0.00,0.01
-1.00,2.17,-0.01,-0.00,-0.00
-1.00,2.25,0.06,0.00,0.25
-1.00,2.21,0.01,0.00,0.00
-1.00,2.28,0.05,0.00,0.09
-1.00,2.22,-0.03,-0.00,-0.04
-1.00,2.26,0.01,0.00,0.00
-1.00,2.16,-0.05,-0.00,-0.12
-1.00,2.19,0.02,0.00,0.01
-1.00,2.09,-0.04,-0.00,-0.05
-1.00,2.10,0.03,0.00,0.02
-1.00,1.99,-0.03,-0.00,-0.02
-1.00,2.01,0.03,0.00,0.04
-1.00,1.92,-0.03,-0.00,-0.02
-1.00,1.91,0.02,0.00,0.01
-1.00,1.79,-0.03,-0.00,-0.02
-1.00,1.77,0.03,0.00,0.02
-1.00,1.63,-0.02,-0.00,-0.01
-1.00,1.62,0.04,0.00,0.07
-1.00,1.47,-0.04,-0.00,-0.05
-1.00,1.40,0.01,0.00,0.00
-1.00,1.18,-0.03,-0.00,-0.03
-1.00,1.17,0.07,0.00,0.29
-1.00,1.05,-0.02,-0.00,-0.01
-1.00,1.10,0.03,0.00,0.02
-1.00,1.03,-0.06,-0.00,-0.22
-1.00,1.07,0.00,0.00,0.00
-1.00,1.03,-0.03,-0.00,-0.02
-1.00,1.14,0.04,0.00,0.09
-1.00,1.10,-0.04,-0.00,-0.06
-1.00,1.27,0.05,0.00,0.15
-1.00,1.76,0.10,0.00,0.95
-1.00,2.17,-0.08,-0.00,-0.52
-1.00,1.88,-0.30,-0.03,-25.86
-1.00,1.26,-0.07,-0.00,-0.35
-1.00,1.06,0.34,0.04,37.90
-1.00,1.32,0.35,0.04,41.85
-1.00,1.48,-0.05,-0.00,-0.16
-1.00,1.71,-0.18,-0.01,-5.71
-1.00,1.81,-0.21,-0.01,-9.54
-1.00,2.00,-0.06,-0.00,-0.21
-1.00,2.07,-0.02,-0.00,-0.00
-1.00,2.23,0.09,0.00,0.69
-1.00,2.25,0.03,0.00,0.03
-1.00,2.40,0.09,0.00,0.62
-1.00,2.40,-0.01,-0.00,-0.00
-1.00,2.48,0.02,0.00,0.01
-1.00,2.46,-0.03,-0.00,-0.02
-1.00,2.48,0.00,0.00,0.00
-1.00,2.43,-0.02,-0.00,-0.01
-1.00,2.46,0.02,0.00,0.01
-1.00,2.38,-0.04,-0.00,-0.04
-1.00,2.34,0.01,0.00,0.00
-1.00,2.21,-0.02,-0.00,-0.00
-1.00,2.23,0.05,0.00,0.14
-1.00,2.14,-0.03,-0.00,-0.02
-1.00,2.10,0.00,0.00,0.00
-1.00,1.94,-0.04,-0.00,-0.06
-1.00,1.83,0.02,0.00,0.01
-1.00,1.62,-0.01,-0.00,-0.00
-1.00,1.55,0.06,0.00,0.18
-1.00,1.40,-0.01,-0.00,-0.00
-1.00,1.39,0.03,0.00,0.02
-1.00,1.32,-0.04,-0.00,-0.07
-1.00,1.39,0.00,0.00,0.00
-1.00,1.37,-0.05,-0.00,-0.11
-1.00,1.48,0.02,0.00,0.01
-1.00,1.45,-0.04,-0.00,-0.06
-1.00,1.55,0.04,0.00,0.08
-1.00,1.52,-0.02,-0.00,-0.01
-1.00,1.60,0.05,0.00,0.11
-1.00,1.58,-0.01,-0.00,-0.00
-1.00,1.63,0.02,0.00,0.01
-1.00,1.55,-0.03,-0.00,-0.03
-1.00,1.60,0.04,0.00,0.05
-1.00,1.53,-0.03,-0.00,-0.02
-1.00,1.57,0.03,0.00,0.02
-1.00,1.52,-0.03,-0.00,-0.02
-1.00,1.58,0.02,0.00,0.01
-1.00,1.54,-0.03,-0.00,-0.03
-1.00,1.56,0.00,0.00,0.00
-1.00,1.49,-0.02,-0.00,-0.01
-1.00,1.55,0.05,0.00,0.12
-1.00,1.50,-0.03,-0.00,-0.02
-1.00,1.54,0.02,0.00,0.01
-1.00,1.50,-0.03,-0.00,-0.02
-1.00,1.55,0.02,0.00,0.01
-1.00,1.52,-0.02,-0.00,-0.01
-1.00,1.60,0.02,0.00,0.01
-1.00,1.58,-0.03,-0.00,-0.03
-1.00,1.64,0.02,0.00,0.01
-1.00,1.61,-0.02,-0.00,-0.01
-1.00,1.67,0.03,0.00,0.02
-1.00,1.63,-0.02,-0.00,-0.01
-1.00,1.69,0.03,0.00,0.02
-1.00,1.64,-0.03,-0.00,-0.02
-1.00,1.69,0.03,0.00,0.02
-1.00,1.65,-0.02,-0.00,-0.02
-1.00,1.71,0.02,0.00,0.01
-1.00,1.67,-0.03,-0.00,-0.02
-1.00,1.79,0.04,0.00,0.05
-1.00,1.77,-0.04,-0.00,-0.07
-1.00,1.80,-0.00,-0.00,-0.00
-1.00,1.72,-0.02,-0.00,-0.01
-1.00,1.74,0.05,0.00,0.11
-1.00,1.70,0.00,0.00,0.00
-1.00,1.76,0.03,0.00,0.03
-1.00,1.72,-0.04,-0.00,-0.06
-1.00,1.78,0.01,0.00,0.00
-1.00,1.74,-0.03,-0.00,-0.04
-1.00,1.77,0.02,0.00,0.01
-1.00,1.66,-0.04,-0.00,-0.04
-1.00,1.96,0.13,0.00,2.09
-1.00,2.51,0.06,0.00,0.26
-1.00,2.68,-0.21,-0.01,-9.34
-1.00,2.14,-0.29,-0.03,-25.64
-1.00,1.60,0.09,0.00,0.82
-1.00,1.49,0.38,0.05,54.87
-1.00,1.68,0.24,0.01,14.40
-1.00,1.70,-0.13,-0.00,-2.11
-1.00,1.77,-0.18,-0.01,-5.59
-1.00,1.78,-0.15,-0.00,-3.72
-1.00,1.83,-0.04,-0.00,-0.05
-1.00,1.78,-0.00,-0.00,-0.00
-1.00,1.83,0.09,0.00,0.63
-1.00,1.80,0.04,0.00,0.05
-1.00,1.88,0.06,0.00,0.20
-1.00,1.84,-0.02,-0.00,-0.01
-1.00,1.90,0.02,0.00,0.00
-1.00,1.85,-0.04,-0.00,-0.05
-1.00,1.90,0.01,0.00,0.00
-1.00,1.84,-0.03,-0.00,-0.03
-1.00,1.90,0.03,0.00,0.03
-1.00,1.90,-0.01,-0.00,-0.00
-1.00,1.98,0.02,0.00,0.00
-1.00,1.96,-0.04,-0.00,-0.05
-1.00,2.05,0.02,0.00,0.01
-1.00,2.01,-0.03,-0.00,-0.03
-1.00,2.05,0.03,0.00,0.02
-1.00,1.98,-0.02,-0.00,-0.01
-1.00,1.98,0.03,0.00,0.03
-1.00,1.86,-0.02,-0.00,-0.01
-1.00,1.85,0.04,0.00,0.06
-1.00,1.74,-0.02,-0.00,-0.01
-1.00,1.70,0.01,0.00,0.00
-1.00,1.60,-0.02,-0.00,-0.00
-1.00,1.67,0.04,0.00,0.05
-1.00,1.63,-0.04,-0.00,-0.08
-1.00,1.70,0.00,0.00,0.00
-1.00,1.65,-0.04,-0.00,-0.08
-1.00,1.70,0.03,0.00,0.02
-1.00,1.63,-0.02,-0.00,-0.01
-1.00,1.65,0.04,0.00,0.05
-1.00,1.55,-0.01,-0.00,-0.00
-1.00,1.60,0.05,0.00,0.11
-1.00,1.56,-0.02,-0.00,-0.01
-1.00,1.63,0.01,0.00,0.00
-1.00,1.61,-0.04,-0.00,-0.07
-1.00,1.64,-0.00,-0.00,-0.00
-1.00,1.61,-0.02,-0.00,-0.01
-1.00,1.68,0.03,0.00,0.03
-1.00,1.65,-0.02,-0.00,-0.00
-1.00,1.74,0.03,0.00,0.03
-1.00,1.73,-0.02,-0.00,-0.01
-1.00,1.80,0.01,0.00,0.00
-1.00,1.77,-0.03,-0.00,-0.03
-1.00,1.82,0.02,0.00,0.01
-1.00,1.80,-0.01,-0.00,-0.00
-1.00,1.84,0.02,0.00,0.01
-1.00,1.80,-0.02,-0.00,-0.01
-1.00,1.86,0.03,0.00,0.02
-1.00,1.83,-0.02,-0.00,-0.01
-1.00,1.86,0.01,0.00,0.00
-1.00,1.81,-0.02,-0.00,-0.01
-1.00,1.83,0.02,0.00,0.01
-1.00,1.70,-0.03,-0.00,-0.04
-1.00,1.75,0.06,0.00,0.24
-1.00,1.73,-0.01,-0.00,-0.00
-1.00,1.79,0.01,0.00,0.00
-1.00,1.76,-0.04,-0.00,-0.09
-1.00,1.81,0.01,0.00,0.00
-1.00,1.78,-0.02,-0.00,-0.01
-1.00,1.86,0.04,0.00,0.05
-1.00,1.84,-0.02,-0.00,-0.01
-1.00,1.87,0.01,0.00,0.00
-1.00,1.78,-0.02,-0.00,-0.01
-1.00,1.79,0.04,0.00,0.06
-1.00,1.74,-0.00,-0.00,-0.00
-1.00,1.79,0.03,0.00,0.03
-1.00,1.78,-0.03,-0.00,-0.03
-1.00,1.85,0.00,0.00,0.00
-1.00,1.81,-0.05,-0.00,-0.11
-1.00,1.82,0.01,0.00,0.00
-1.00,1.71,-0.02,-0.00,-0.01
-1.00,2.05,0.15,0.00,3.28
-1.00,2.60,0.05,0.00,0.13
-1.00,2.71,-0.24,-0.01,-13.21
-1.00,2.04,-0.31,-0.03,-29.70
-1.00,1.45,0.14,0.00,2.67
-1.00,1.35,0.42,0.08,76.09
-1.00,1.49,0.21,0.01,9.92
-1.00,1.49,-0.15,-0.00,-3.07
-1.00,1.56,-0.19,-0.01,-6.45
-1.00,1.56,-0.17,-0.00,-4.59
-1.00,1.62,-0.04,-0.00,-0.06
-1.00,1.58,0.00,0.00,0.00
-1.00,1.61,0.08,0.00,0.44
-1.00,1.63,0.07,0.00,0.28
-1.00,1.75,0.07,0.00,0.28
-1.00,1.76,-0.03,-0.00,-0.03
-1.00,1.85,-0.00,-0.00,-0.00
-1.00,1.84,-0.04,-0.00,-0.05
-1.00,1.89,0.01,0.00,0.00
-1.00,1.90,-0.01,-0.00,-0.00
-1.00,1.98,0.03,0.00,0.02
-1.00,1.98,-0.03,-0.00,-0.02
-1.00,2.02,0.00,0.00,0.00
-1.00,1.96,-0.02,-0.00,-0.01
-1.00,2.01,0.04,0.00,0.05
-1.00,1.96,-0.01,-0.00,-0.00
-1.00,1.97,0.02,0.00,0.01
-1.00,1.87,-0.03,-0.00,-0.04
-1.00,1.81,0.01,0.00,0.00
-1.00,1.66,-0.01,-0.00,-0.00
-1.00,1.60,0.04,0.00,0.06
-1.00,1.48,-0.01,-0.00,-0.00
-1.00,1.47,0.03,0.00,0.02
-1.00,1.41,-0.03,-0.00,-0.02
-1.00,1.44,-0.00,-0.00,-0.00
-1.00,1.39,-0.04,-0.00,-0.05
-1.00,1.48,0.03,0.00,0.02
-1.00,1.46,-0.03,-0.00,-0.02
-1.00,1.52,0.02,0.00,0.01
-1.00,1.49,-0.01,-0.00,-0.00
-1.00,1.58,0.04,0.00,0.07
-1.00,1.62,-0.00,-0.00,-0.00
-1.00,1.62,-0.02,-0.00,-0.01
-1.00,1.54,-0.02,-0.00,-0.01
-1.00,1.61,0.06,0.00,0.18
-1.00,1.60,-0.01,-0.00,-0.00
-1.00,1.66,0.01,0.00,0.00
-1.00,1.61,-0.05,-0.00,-0.09
-1.00,1.64,0.01,0.00,0.00
-1.00,1.60,-0.01,-0.00,-0.00
-1.00,1.64,0.02,0.00,0.02
-1.00,1.60,-0.02,-0.00,-0.00
-1.00,1.67,0.03,0.00,0.03
-1.00,1.62,-0.04,-0.00,-0.05
-1.00,1.68,0.02,0.00,0.01
-1.00,1.64,-0.02,-0.00,-0.01
-1.00,1.67,0.02,0.00,0.01
-1.00,1.63,-0.01,-0.00,-0.00
-1.00,1.68,0.03,0.00,0.02
-1.00,1.64,-0.02,-0.00,-0.01
-1.00,1.67,0.02,0.00,0.00
-1.00,1.65,-0.02,-0.00,-0.00
-1.00,1.74,0.03,0.00,0.02
-1.00,1.71,-0.04,-0.00,-0.07
-1.00,1.76,0.01,0.00,0.00
-1.00,1.73,-0.02,-0.00,-0.01
-1.00,1.76,0.02,0.00,0.01
-1.00,1.72,-0.01,-0.00,-0.00
-1.00,1.81,0.04,0.00,0.07
-1.00,1.83,-0.02,-0.00,-0.01
-1.00,1.89,-0.01,-0.00,-0.00
-1.00,1.82,-0.04,-0.00,-0.08
-1.00,1.83,0.03,0.00,0.02
-1.00,1.72,-0.01,-0.00,-0.00
-1.00,1.72,0.05,0.00,0.14
-1.00,1.72,0.01,0.00,0.00
-1.00,1.79,0.01,0.00,0.00
-1.00,1.75,-0.06,-0.00,-0.21
-1.00,1.80,-0.00,-0.00,-0.00
-1.00,1.73,-0.03,-0.00,-0.03
-1.00,1.74,0.03,0.00,0.03
-1.00,2.06,0.11,0.00,1.51
-1.00,2.68,0.06,0.00,0.20
-1.00,2.65,-0.29,-0.03,-25.30
-1.00,2.02,-0.25,-0.02,-15.74
-1.00,1.43,0.16,0.00,4.11
-1.00,1.46,0.46,0.10,96.78
-1.00,1.55,0.14,0.00,2.79
-1.00,1.63,-0.13,-0.00,-2.45
-1.00,1.63,-0.23,-0.01,-12.06
-1.00,1.67,-0.12,-0.00,-1.79
-1.00,1.66,-0.05,-0.00,-0.09
-1.00,1.71,0.05,0.00,0.12
-1.00,1.67,0.04,0.00,0.06
-1.00,1.74,0.08,0.00,0.50
-1.00,1.74,0.02,0.00,0.01
-1.00,1.81,0.02,0.00,0.00
-1.00,1.79,-0.03,-0.00,-0.03
-1.00,1.85,0.01,0.00,0.00
-1.00,1.84,-0.02,-0.00,-0.01
-1.00,1.93,0.02,0.00,0.01
-1.00,1.94,-0.02,-0.00,-0.01
-1.00,2.00,0.00,0.00,0.00
-1.00,1.97,-0.02,-0.00,-0.01
-1.00,1.96,0.01,0.00,0.00
-1.00,1.86,-0.00,-0.00,-0.00
-1.00,1.86,0.05,0.00,0.13
-1.00,1.81,-0.00,-0.00,-0.00
-1.00,1.75,-0.01,-0.00,-0.00
-1.00,1.63,-0.03,-0.00,-0.02
-1.00,1.57,0.02,0.00,0.01
-1.00,1.47,-0.00,-0.00,-0.00
-1.00,1.44,0.02,0.00,0.00
-1.00,1.39,-0.01,-0.00,-0.00
-1.00,1.45,0.01,0.00,0.00
-1.00,1.44,-0.04,-0.00,-0.04
-1.00,1.50,-0.00,-0.00,-0.00
-1.00,1.50,-0.02,-0.00,-0.01
-1.00,1.53,0.01,0.00,0.00
-1.00,1.50,-0.00,-0.00,-0.00
-1.00,1.52,0.03,0.00,0.04
-1.00,1.50,0.00,0.00,0.00
-1.00,1.54,0.02,0.00,0.01
-1.00,1.52,-0.02,-0.00,-0.01
-1.00,1.55,0.00,0.00,0.00
-1.00,1.52,-0.03,-0.00,-0.02
-1.00,1.57,0.02,0.00,0.01
-1.00,1.56,-0.02,-0.00,-0.01
-1.00,1.63,0.02,0.00,0.01
-1.00,1.63,-0.02,-0.00,-0.01
-1.00,1.69,0.01,0.00,0.00
-1.00,1.68,-0.02,-0.00,-0.00
-1.00,1.73,0.02,0.00,0.01
-1.00,1.72,-0.01,-0.00,-0.00
-1.00,1.76,0.01,0.00,0.00
-1.00,1.74,-0.01,-0.00,-0.00
-1.00,1.77,0.01,0.00,0.00
-1.00,1.76,-0.01,-0.00,-0.00
-1.00,1.82,0.02,0.00,0.01
-1.00,1.80,-0.03,-0.00,-0.02
-1.00,1.82,0.01,0.00,0.00
-1.00,1.81,-0.01,-0.00,-0.00
-1.00,1.84,0.01,0.00,0.00
-1.00,1.80,-0.01,-0.00,-0.00
-1.00,1.84,0.02,0.00,0.01
-1.00,1.79,-0.02,-0.00,-0.01
-1.00,1.84,0.02,0.00,0.01
-1.00,1.83,-0.01,-0.00,-0.00
-1.00,1.85,0.00,0.00,0.00
-1.00,1.80,-0.02,-0.00,-0.01
-1.00,1.83,0.02,0.00,0.02
-1.00,1.80,-0.01,-0.00,-0.00
-1.00,1.81,0.01,0.00,0.00
-1.00,1.79,-0.01,-0.00,-0.00
-1.00,1.81,0.01,0.00,0.00
-1.00,1.79,-0.01,-0.00,-0.00
-1.00,1.89,0.03,0.00,0.02
-1.00,1.89,-0.04,-0.00,-0.05
-1.00,1.89,-0.01,-0.00,-0.00
-1.00,1.82,-0.01,-0.00,-0.00
-1.00,1.81,0.04,0.00,0.04
-1.00,1.74,0.01,0.00,0.00
-1.00,1.73,0.02,0.00,0.01
-1.00,1.70,-0.00,-0.00,-0.00
-1.00,1.73,0.00,0.00,0.00
-1.00,1.64,-0.05,-0.00,-0.15
-1.00,1.65,0.01,0.00,0.00
-1.00,1.66,0.01,0.00,0.00
-1.00,2.14,0.13,0.00,2.32
-1.00,2.73,-0.02,-0.00,-0.01
-1.00,2.83,-0.27,-0.02,-19.51
-1.00,2.22,-0.27,-0.02,-18.95
-1.00,1.77,0.20,0.01,8.23
-1.00,1.74,0.41,0.07,68.99
-1.00,1.85,0.17,0.00,4.99
-1.00,1.84,-0.13,-0.00,-2.33
-1.00,1.88,-0.17,-0.00,-4.72
-1.00,1.84,-0.15,-0.00,-3.12
-1.00,1.85,-0.03,-0.00,-0.04
-1.00,1.82,0.01,0.00,0.00
-1.00,1.86,0.07,0.00,0.29
-1.00,1.84,0.03,0.00,0.02
-1.00,1.86,0.03,0.00,0.03
-1.00,1.81,-0.01,-0.00,-0.00
-1.00,1.75,-0.00,-0.00,-0.00
-1.00,1.66,-0.00,-0.00,-0.00
-1.00,1.70,0.05,0.00,0.11
-1.00,1.78,0.00,0.00,0.00
-1.00,1.96,-0.01,-0.00,-0.00
-1.00,2.08,-0.07,-0.00,-0.32
-1.00,2.22,-0.03,-0.00,-0.04
-1.00,2.29,-0.02,-0.00,-0.01
-1.00,2.39,0.03,0.00,0.04
-1.00,2.44,0.02,0.00,0.01
-1.00,2.48,0.03,0.00,0.02
-1.00,2.42,-0.01,-0.00,-0.00
-1.00,2.29,-0.00,-0.00,-0.00
-1.00,2.17,0.03,0.00,0.02
-1.00,2.15,0.05,0.00,0.11
-1.00,2.07,-0.03,-0.00,-0.02
-1.00,2.01,-0.03,-0.00,-0.02
-1.00,1.95,-0.03,-0.00,-0.03
-1.00,1.93,-0.00,-0.00,-0.00
-1.00,1.87,-0.02,-0.00,-0.01
-1.00,1.88,0.02,0.00,0.00
-1.00,1.86,0.00,0.00,0.00
-1.00,1.89,0.01,0.00,0.00
-1.00,1.86,-0.01,-0.00,-0.00
-1.00,1.87,0.01,0.00,0.00
-1.00,1.84,-0.01,-0.00,-0.00
-1.00,1.84,0.01,0.00,0.00
-1.00,1.80,-0.00,-0.00,-0.00
-1.00,1.82,0.02,0.00,0.01
-1.00,1.79,-0.01,-0.00,-0.00
-1.00,1.81,0.01,0.00,0.00
-1.00,1.76,-0.02,-0.00,-0.01
-1.00,1.79,0.02,0.00,0.01
-1.00,1.79,-0.00,-0.00,-0.00
-1.00,1.88,0.02,0.00,0.00
-1.00,1.94,-0.02,-0.00,-0.01
-1.00,1.99,-0.02,-0.00,-0.01
-1.00,1.99,-0.02,-0.00,-0.01
-1.00,2.03,0.03,0.00,0.02
-1.00,2.03,0.01,0.00,0.00
-1.00,2.05,0.02,0.00,0.01
-1.00,2.01,-0.01,-0.00,-0.00
-1.00,2.00,0.01,0.00,0.00
-1.00,1.91,-0.02,-0.00,-0.01
-1.00,1.93,0.04,0.00,0.04
-1.00,1.96,0.01,0.00,0.00
-1.00,1.95,-0.03,-0.00,-0.03
-1.00,1.94,-0.02,-0.00,-0.01
-1.00,1.97,0.01,0.00,0.00
-1.00,1.94,-0.01,-0.00,-0.00
-1.00,1.99,0.03,0.00,0.02
-1.00,2.01,-0.00,-0.00,-0.00
-1.00,2.09,0.01,0.00,0.00
-1.00,2.08,-0.03,-0.00,-0.03
-1.00,2.07,-0.00,-0.00,-0.00
-1.00,2.03,0.01,0.00,0.00
-1.00,2.01,0.02,0.00,0.02
-1.00,1.95,-0.00,-0.00,-0.00
-1.00,1.91,0.01,0.00,0.00
-1.00,1.81,-0.01,-0.00,-0.00
-1.00,1.80,0.02,0.00,0.01
-1.00,1.78,-0.00,-0.00,-0.00
-1.00,1.78,-0.01,-0.00,-0.00
-1.00,1.75,-0.03,-0.00,-0.02
-1.00,1.73,-0.00,-0.00,-0.00
-1.00,1.71,0.00,0.00,0.00
-1.00,1.71,0.02,0.00,0.01
-1.00,1.68,-0.00,-0.00,-0.00
-1.00,1.73,0.02,0.00,0.01
-1.00,1.71,-0.02,-0.00,-0.01
-1.00,1.72,0.00,0.00,0.00
-1.00,1.73,-0.00,-0.00,-0.00
-1.00,1.72,-0.00,-0.00,-0.00
-1.00,2.03,0.09,0.00,0.79
-1.00,2.60,0.05,0.00,0.10
-1.00,2.67,-0.24,-0.01,-13.59
-1.00,2.08,-0.26,-0.02,-17.93
-1.00,1.47,0.12,0.00,1.77
-1.00,1.44,0.44,0.08,83.95
-1.00,1.50,0.17,0.00,4.71
-1.00,1.55,-0.11,-0.00,-1.22
-1.00,1.52,-0.22,-0.01,-10.46
-1.00,1.53,-0.12,-0.00,-1.90
-1.00,1.50,-0.06,-0.00,-0.17
-1.00,1.51,0.04,0.00,0.04
-1.00,1.47,0.04,0.00,0.06
-1.00,1.45,0.06,0.00,0.20
-1.00,1.38,0.02,0.00,0.01
-1.00,1.38,0.04,0.00,0.05
-1.00,1.37,-0.00,-0.00,-0.00
-1.00,1.40,-0.00,-0.00,-0.00
-1.00,1.42,-0.03,-0.00,-0.03
-1.00,1.48,-0.01,-0.00,-0.00
-1.00,1.53,-0.02,-0.00,-0.01
-1.00,1.62,0.00,0.00,0.00
-1.00,1.68,-0.01,-0.00,-0.00
-1.00,1.75,0.01,0.00,0.00
-1.00,1.80,0.00,0.00,0.00
-1.00,1.84,0.00,0.00,0.00
-1.00,1.85,0.00,0.00,0.00
-1.00,1.84,0.00,0.00,0.00
-1.00,1.75,-0.01,-0.00,-0.00
-1.00,1.70,0.02,0.00,0.01
-1.00,1.62,0.01,0.00,0.00
-1.00,1.55,0.00,0.00,0.00
-1.00,1.51,0.00,0.00,0.00
-1.00,1.58,0.02,0.00,0.01
-1.00,1.64,-0.03,-0.00,-0.04
-1.00,1.74,-0.03,-0.00,-0.03
-1.00,1.77,-0.04,-0.00,-0.06
-1.00,1.84,0.01,0.00,0.00
-1.00,1.86,0.01,0.00,0.00
-1.00,1.92,0.03,0.00,0.04
-1.00,1.90,0.00,0.00,0.00
-1.00,1.91,0.02,0.00,0.01
-1.00,1.88,-0.00,-0.00,-0.00
-1.00,1.87,0.01,0.00,0.00
-1.00,1.82,-0.01,-0.00,-0.00
-1.00,1.82,0.00,0.00,0.00
-1.00,1.78,-0.02,-0.00,-0.00
-1.00,1.78,0.00,0.00,0.00
-1.00,1.74,-0.01,-0.00,-0.00
-1.00,1.75,0.01,0.00,0.00
-1.00,1.73,-0.01,-0.00,-0.00
-1.00,1.74,0.01,0.00,0.00
-1.00,1.73,-0.00,-0.00,-0.00
-1.00,1.74,0.01,0.00,0.00
-1.00,1.78,0.00,0.00,0.00
-1.00,1.82,-0.00,-0.00,-0.00
-1.00,1.81,-0.02,-0.00,-0.01
-1.00,1.80,0.00,0.00,0.00
-1.00,1.78,0.01,0.00,0.00
-1.00,1.78,0.02,0.00,0.01
-1.00,1.78,0.00,0.00,0.00
-1.00,1.76,-0.01,-0.00,-0.00
-1.00,1.67,-0.03,-0.00,-0.02
-1.00,1.67,0.03,0.00,0.04
-1.00,1.66,0.01,0.00,0.00
-1.00,1.68,-0.00,-0.00,-0.00
-1.00,1.66,-0.03,-0.00,-0.02
-1.00,1.68,-0.00,-0.00,-0.00
-1.00,1.70,-0.00,-0.00,-0.00
-1.00,1.74,0.01,0.00,0.00
-1.00,1.74,-0.01,-0.00,-0.00
-1.00,1.74,-0.00,-0.00,-0.00
-1.00,1.71,0.00,0.00,0.00
-1.00,1.73,0.03,0.00,0.02
-1.00,1.69,-0.01,-0.00,-0.00
-1.00,1.68,0.01,0.00,0.00
-1.00,1.61,-0.02,-0.00,-0.00
-1.00,1.60,0.02,0.00,0.00
-1.00,1.61,0.01,0.00,0.00
-1.00,1.70,0.01,0.00,0.00
-1.00,1.74,-0.04,-0.00,-0.04
-1.00,1.79,-0.03,-0.00,-0.02
-1.00,1.78,-0.02,-0.00,-0.01
-1.00,1.78,0.02,0.00,0.01
-1.00,1.71,0.00,0.00,0.00
-1.00,1.90,0.10,0.00,1.08
-1.00,2.49,0.11,0.00,1.45
-1.00,2.60,-0.23,-0.01,-12.64
-1.00,2.03,-0.30,-0.03,-26.44
-1.00,1.37,0.06,0.00,0.23
-1.00,1.27,0.42,0.07,73.86
-1.00,1.43,0.24,0.01,13.65
-1.00,1.46,-0.13,-0.00,-2.30
-1.00,1.45,-0.22,-0.01,-10.58
-1.00,1.52,-0.12,-0.00,-1.56
-1.00,1.59,-0.04,-0.00,-0.06
-1.00,1.64,0.00,0.00,0.00
-1.00,1.69,0.04,0.00,0.09
-1.00,1.72,0.05,0.00,0.11
-1.00,1.74,0.04,0.00,0.07
-1.00,1.75,0.03,0.00,0.02
-1.00,1.78,0.01,0.00,0.00
-1.00,1.77,-0.02,-0.00,-0.01
-1.00,1.79,-0.00,-0.00,-0.00
-1.00,1.83,-0.00,-0.00,-0.00
-1.00,1.88,-0.01,-0.00,-0.00
-1.00,1.90,-0.02,-0.00,-0.01
-1.00,1.95,-0.00,-0.00,-0.00
-1.00,1.97,-0.00,-0.00,-0.00
-1.00,2.01,0.01,0.00,0.00
-1.00,2.00,-0.01,-0.00,-0.00
-1.00,1.97,0.00,0.00,0.00
-1.00,1.88,-0.00,-0.00,-0.00
-1.00,1.79,0.02,0.00,0.01
-1.00,1.66,0.01,0.00,0.00
-1.00,1.58,0.02,0.00,0.01
-1.00,1.48,-0.01,-0.00,-0.00
-1.00,1.46,0.01,0.00,0.00
-1.00,1.44,-0.02,-0.00,-0.01
-1.00,1.48,-0.01,-0.00,-0.00
-1.00,1.48,-0.03,-0.00,-0.04
-1.00,1.53,-0.00,-0.00,-0.00
-1.00,1.53,-0.01,-0.00,-0.00
-1.00,1.53,0.01,0.00,0.00
-1.00,1.51,0.01,0.00,0.00
-1.00,1.58,0.05,0.00,0.12
-1.00,1.60,-0.01,-0.00,-0.00
-1.00,1.65,-0.00,-0.00,-0.00
-1.00,1.66,-0.02,-0.00,-0.02
-1.00,1.68,-0.00,-0.00,-0.00
-1.00,1.67,-0.00,-0.00,-0.00
-1.00,1.69,0.02,0.00,0.00
-1.00,1.68,0.00,0.00,0.00
-1.00,1.68,0.00,0.00,0.00
-1.00,1.69,0.00,0.00,0.00
-1.00,1.70,-0.00,-0.00,-0.00
-1.00,1.68,-0.01,-0.00,-0.00
-1.00,1.69,0.00,0.00,0.00
-1.00,1.68,-0.00,-0.00,-0.00
-1.00,1.69,0.01,0.00,0.00
-1.00,1.69,-0.00,-0.00,-0.00
-1.00,1.70,0.00,0.00,0.00
-1.00,1.70,-0.00,-0.00,-0.00
-1.00,1.72,0.00,0.00,0.00
-1.00,1.72,-0.01,-0.00,-0.00
-1.00,1.71,-0.00,-0.00,-0.00
-1.00,1.70,0.00,0.00,0.00
-1.00,1.72,0.01,0.00,0.00
-1.00,1.71,-0.00,-0.00,-0.00
-1.00,1.72,-0.00,-0.00,-0.00
-1.00,1.69,-0.01,-0.00,-0.00
-1.00,1.71,0.01,0.00,0.00
-1.00,1.70,-0.00,-0.00,-0.00
-1.00,1.72,0.00,0.00,0.00
-1.00,1.63,-0.03,-0.00,-0.03
-1.00,1.60,0.02,0.00,0.01
-1.00,1.61,0.03,0.00,0.03
-1.00,1.56,-0.02,-0.00,-0.00
-1.00,1.43,-0.03,-0.00,-0.03
-1.00,1.36,0.02,0.00,0.01
-1.00,1.31,0.02,0.00,0.01
-1.00,1.28,0.00,0.00,0.00
-1.00,1.23,-0.02,-0.00,-0.01
-1.00,1.20,-0.01,-0.00,-0.00
-1.00,1.19,-0.00,-0.00,-0.00
-1.00,1.22,0.01,0.00,0.00
-1.00,1.27,-0.00,-0.00,-0.00
-1.00,1.41,0.01,0.00,0.00
-1.00,1.50,-0.03,-0.00,-0.03
-1.00,1.62,-0.01,-0.00,-0.00
-1.00,1.65,-0.02,-0.00,-0.01
-1.00,1.68,0.01,0.00,0.00
-1.00,2.11,0.15,0.00,3.21
-1.00,2.61,0.01,0.00,0.00
-1.00,2.60,-0.25,-0.02,-15.15
-1.00,1.94,-0.23,-0.01,-12.77
-1.00,1.47,0.21,0.01,8.99
-1.00,1.47,0.39,0.06,60.36
-1.00,1.52,0.10,0.00,1.02
-1.00,1.55,-0.14,-0.00,-2.89
-1.00,1.60,-0.18,-0.01,-5.71
-1.00,1.67,-0.12,-0.00,-1.65
-1.00,1.70,-0.05,-0.00,-0.16
-1.00,1.74,0.02,0.00,0.01
-1.00,1.74,0.05,0.00,0.11
-1.00,1.74,0.06,0.00,0.17
-1.00,1.82,0.07,0.00,0.30
-1.00,1.93,0.02,0.00,0.01
-1.00,1.98,-0.04,-0.00,-0.06
-1.00,2.03,-0.03,-0.00,-0.02
-1.00,2.06,-0.02,-0.00,-0.00
-1.00,2.10,0.01,0.00,0.00
-1.00,2.17,0.02,0.00,0.01
-1.00,2.21,-0.00,-0.00,-0.00
-1.00,2.28,-0.00,-0.00,-0.00
-1.00,2.34,-0.01,-0.00,-0.00
-1.00,2.34,-0.02,-0.00,-0.01
-1.00,2.33,0.00,0.00,0.00
-1.00,2.25,-0.00,-0.00,-0.00
-1.00,2.17,0.02,0.00,0.01
-1.00,2.03,0.01,0.00,0.00
-1.00,1.94,0.03,0.00,0.02
-1.00,1.84,0.01,0.00,0.00
-1.00,1.83,0.01,0.00,0.00
-1.00,1.83,-0.03,-0.00,-0.02
-1.00,1.84,-0.03,-0.00,-0.04
-1.00,1.82,-0.03,-0.00,-0.03
-1.00,1.80,-0.01,-0.00,-0.00
-1.00,1.74,0.00,0.00,0.00
-1.00,1.72,0.04,0.00,0.06
-1.00,1.67,0.01,0.00,0.00
-1.00,1.64,0.02,0.00,0.00
-1.00,1.60,-0.00,-0.00,-0.00
-1.00,1.58,-0.00,-0.00,-0.00
-1.00,1.58,-0.01,-0.00,-0.00
-1.00,1.55,-0.02,-0.00,-0.01
-1.00,1.52,-0.01,-0.00,-0.00
-1.00,1.57,0.02,0.00,0.01
-1.00,1.59,-0.01,-0.00,-0.00
-1.00,1.63,-0.01,-0.00,-0.00
-1.00,1.63,-0.02,-0.00,-0.00
-1.00,1.61,-0.00,-0.00,-0.00
-1.00,1.61,0.02,0.00,0.00
-1.00,1.58,0.01,0.00,0.00
-1.00,1.54,0.01,0.00,0.00
-1.00,1.53,0.01,0.00,0.00
-1.00,1.51,-0.01,-0.00,-0.00
-1.00,1.49,-0.01,-0.00,-0.00
-1.00,1.49,-0.00,-0.00,-0.00
-1.00,1.54,0.01,0.00,0.00
-1.00,1.57,-0.02,-0.00,-0.01
-1.00,1.60,-0.01,-0.00,-0.00
-1.00,1.62,-0.01,-0.00,-0.00
-1.00,1.64,0.01,0.00,0.00
-1.00,1.69,0.02,0.00,0.01
-1.00,1.71,-0.00,-0.00,-0.00
-1.00,1.66,-0.02,-0.00,-0.00
-1.00,1.63,0.01,0.00,0.00
-1.00,1.61,0.02,0.00,0.01
-1.00,1.61,0.01,0.00,0.00
-1.00,1.59,-0.01,-0.00,-0.00
-1.00,1.63,0.00,0.00,0.00
-1.00,1.71,-0.00,-0.00,-0.00
-1.00,1.83,-0.01,-0.00,-0.00
-1.00,1.92,-0.03,-0.00,-0.04
-1.00,2.01,-0.01,-0.00,-0.00
-1.00,2.06,-0.00,-0.00,-0.00
-1.00,2.12,0.02,0.00,0.01
-1.00,2.18,0.03,0.00,0.02
-1.00,2.21,0.01,0.00,0.00
-1.00,2.19,-0.01,-0.00,-0.00
-1.00,2.16,0.00,0.00,0.00
-1.00,2.15,0.02,0.00,0.01
-1.00,2.12,0.00,0.00,0.00
-1.00,2.08,-0.01,-0.00,-0.00
-1.00,2.04,-0.01,-0.00,-0.00
-1.00,2.00,-0.00,-0.00,-0.00
-1.00,1.92,-0.02,-0.00,-0.00
-1.00,2.09,0.08,0.00,0.48
-1.00,2.70,0.11,0.00,1.38
-1.00,2.86,-0.23,-0.01,-11.54
-1.00,2.38,-0.29,-0.03,-25.58
-1.00,1.67,0.02,0.00,0.01
-1.00,1.55,0.44,0.08,82.95
-1.00,1.67,0.26,0.02,17.54
-1.00,1.69,-0.10,-0.00,-0.94
-1.00,1.70,-0.20,-0.01,-7.90
-1.00,1.72,-0.15,-0.00,-3.05
-1.00,1.73,-0.06,-0.00,-0.22
-1.00,1.77,0.02,0.00,0.01
-1.00,1.75,0.03,0.00,0.02
-1.00,1.77,0.06,0.00,0.22
-1.00,1.80,0.04,0.00,0.09
-1.00,1.82,0.02,0.00,0.00
-1.00,1.83,-0.01,-0.00,-0.00
-1.00,1.87,-0.00,-0.00,-0.00
-1.00,1.91,-0.01,-0.00,-0.00
-1.00,1.90,-0.03,-0.00,-0.02
-1.00,1.97,0.02,0.00,0.00
-1.00,2.08,0.01,0.00,0.00
-1.00,2.14,-0.03,-0.00,-0.02
-1.00,2.19,-0.02,-0.00,-0.00
-1.00,2.21,-0.01,-0.00,-0.00
-1.00,2.20,0.01,0.00,0.00
-1.00,2.19,0.02,0.00,0.01
-1.00,2.09,-0.01,-0.00,-0.00
-1.00,1.98,0.02,0.00,0.00
-1.00,1.88,0.02,0.00,0.01
-1.00,1.77,0.01,0.00,0.00
-1.00,1.66,-0.01,-0.00,-0.00
-1.00,1.59,-0.00,-0.00,-0.00
-1.00,1.56,-0.00,-0.00,-0.00
-1.00,1.52,-0.02,-0.00,-0.01
-1.00,1.49,-0.02,-0.00,-0.01
-1.00,1.51,0.01,0.00,0.00
-1.00,1.54,0.01,0.00,0.00
-1.00,1.58,-0.00,-0.00,-0.00
-1.00,1.62,-0.00,-0.00,-0.00
-1.00,1.70,0.02,0.00,0.00
-1.00,1.79,0.01,0.00,0.00
-1.00,1.88,-0.01,-0.00,-0.00
-1.00,1.94,-0.01,-0.00,-0.00
-1.00,2.00,0.00,0.00,0.00
-1.00,2.06,0.01,0.00,0.00
-1.00,2.09,0.00,0.00,0.00
-1.00,2.06,-0.01,-0.00,-0.00
-1.00,2.03,0.01,0.00,0.00
-1.00,1.96,0.01,0.00,0.00
-1.00,1.88,0.01,0.00,0.00
-1.00,1.85,0.02,0.00,0.01
-1.00,1.83,-0.00,-0.00,-0.00
-1.00,1.81,-0.02,-0.00,-0.01
-1.00,1.78,-0.03,-0.00,-0.02
-1.00,1.76,-0.01,-0.00,-0.00
-1.00,1.74,0.00,0.00,0.00
-1.00,1.72,0.01,0.00,0.00
-1.00,1.69,0.00,0.00,0.00
-1.00,1.65,0.00,0.00,0.00
-1.00,1.64,0.01,0.00,0.00
-1.00,1.63,0.00,0.00,0.00
-1.00,1.63,-0.00,-0.00,-0.00
-1.00,1.65,-0.00,-0.00,-0.00
-1.00,1.68,-0.01,-0.00,-0.00
-1.00,1.72,-0.01,-0.00,-0.00
-1.00,1.75,-0.00,-0.00,-0.00
-1.00,1.77,-0.01,-0.00,-0.00
-1.00,1.79,0.01,0.00,0.00
-1.00,1.80,0.01,0.00,0.00
-1.00,1.80,0.01,0.00,0.00
-1.00,1.81,0.01,0.00,0.00
-1.00,1.85,0.01,0.00,0.00
-1.00,1.88,-0.01,-0.00,-0.00
-1.00,1.86,-0.02,-0.00,-0.01
-1.00,1.80,-0.01,-0.00,-0.00
-1.00,1.71,0.01,0.00,0.00
-1.00,1.63,0.02,0.00,0.01
-1.00,1.58,0.03,0.00,0.02
-1.00,1.54,0.01,0.00,0.00
-1.00,1.50,-0.02,-0.00,-0.01
-1.00,1.47,-0.01,-0.00,-0.00
-1.00,1.53,0.01,0.00,0.00
-1.00,1.55,-0.02,-0.00,-0.01
-1.00,1.69,0.01,0.00,0.00
-1.00,2.33,0.13,0.00,2.18
-1.00,2.61,-0.16,-0.00,-4.48
-1.00,2.31,-0.26,-0.02,-17.97
-1.00,1.60,-0.06,-0.00,-0.21
-1.00,1.47,0.41,0.07,70.21
-1.00,1.62,0.30,0.03,26.72
-1.00,1.71,-0.05,-0.00,-0.16
-1.00,1.74,-0.21,-0.01,-9.02
-1.00,1.76,-0.17,-0.00,-4.68
-1.00,1.75,-0.07,-0.00,-0.33
-1.00,1.75,0.02,0.00,0.01
-1.00,1.76,0.06,0.00,0.19
-1.00,1.78,0.05,0.00,0.15
-1.00,1.79,0.03,0.00,0.03
-1.00,1.82,0.01,0.00,0.00
-1.00,1.84,-0.01,-0.00,-0.00
-1.00,1.85,-0.01,-0.00,-0.00
-1.00,1.86,-0.01,-0.00,-0.00
-1.00,1.88,-0.00,-0.00,-0.00
-1.00,1.91,0.00,0.00,0.00
-1.00,1.91,-0.01,-0.00,-0.00
-1.00,1.90,-0.01,-0.00,-0.00
-1.00,1.90,0.01,0.00,0.00
-1.00,1.91,0.01,0.00,0.00
-1.00,1.94,0.01,0.00,0.00
-1.00,1.95,-0.01,-0.00,-0.00
-1.00,1.87,-0.03,-0.00,-0.04
-1.00,1.81,0.01,0.00,0.00
-1.00,1.75,0.02,0.00,0.01
-1.00,1.69,0.01,0.00,0.00
-1.00,1.61,-0.00,-0.00,-0.00
-1.00,1.57,0.00,0.00,0.00
-1.00,1.55,-0.00,-0.00,-0.00
-1.00,1.54,-0.02,-0.00,-0.00
-1.00,1.53,-0.02,-0.00,-0.00
-1.00,1.54,-0.00,-0.00,-0.00
-1.00,1.56,0.00,0.00,0.00
-1.00,1.57,-0.01,-0.00,-0.00
-1.00,1.56,-0.00,-0.00,-0.00
-1.00,1.56,0.01,0.00,0.00
-1.00,1.59,0.02,0.00,0.00
-1.00,1.64,0.01,0.00,0.00
-1.00,1.68,-0.01,-0.00,-0.00
-1.00,1.69,-0.02,-0.00,-0.01
-1.00,1.73,0.01,0.00,0.00
-1.00,1.75,0.00,0.00,0.00
-1.00,1.74,-0.01,-0.00,-0.00
-1.00,1.76,0.01,0.00,0.00
-1.00,1.72,-0.01,-0.00,-0.00
-1.00,1.71,0.01,0.00,0.00
-1.00,1.68,0.00,0.00,0.00
-1.00,1.68,0.01,0.00,0.00
-1.00,1.66,-0.01,-0.00,-0.00
-1.00,1.64,-0.01,-0.00,-0.00
-1.00,1.62,-0.01,-0.00,-0.00
-1.00,1.59,-0.00,-0.00,-0.00
-1.00,1.56,0.00,0.00,0.00
-1.00,1.51,0.00,0.00,0.00
-1.00,1.52,0.02,0.00,0.01
-1.00,1.56,0.01,0.00,0.00
-1.00,1.61,-0.01,-0.00,-0.00
-1.00,1.66,-0.02,-0.00,-0.01
-1.00,1.68,-0.02,-0.00,-0.01
-1.00,1.71,0.00,0.00,0.00
-1.00,1.74,0.01,0.00,0.00
-1.00,1.76,0.01,0.00,0.00
-1.00,1.76,0.00,0.00,0.00
-1.00,1.78,0.01,0.00,0.00
-1.00,1.76,-0.01,-0.00,-0.00
-1.00,1.75,0.00,0.00,0.00
-1.00,1.72,-0.00,-0.00,-0.00
-1.00,1.69,0.00,0.00,0.00
-1.00,1.65,-0.00,-0.00,-0.00
-1.00,1.67,0.02,0.00,0.01
-1.00,1.71,-0.00,-0.00,-0.00
-1.00,1.73,-0.03,-0.00,-0.02
-1.00,1.72,-0.02,-0.00,-0.01
-1.00,1.71,0.00,0.00,0.00
-1.00,1.72,0.02,0.00,0.01
-1.00,1.74,0.01,0.00,0.00
-1.00,1.73,-0.00,-0.00,-0.00
-1.00,1.73,0.00,0.00,0.00
-1.00,1.76,0.01,0.00,0.00
-1.00,1.74,-0.02,-0.00,-0.00
-1.00,1.68,-0.02,-0.00,-0.00
-1.00,1.72,0.04,0.00,0.04
-1.00,2.26,0.15,0.00,3.61
-1.00,2.56,-0.13,-0.00,-2.25
-1.00,2.31,-0.28,-0.02,-21.49
-1.00,1.58,-0.12,-0.00,-1.90
-1.00,1.32,0.34,0.04,40.13
-1.00,1.38,0.32,0.03,34.11
-1.00,1.46,0.01,0.00,0.00
-1.00,1.45,-0.19,-0.01,-6.94
-1.00,1.49,-0.16,-0.00,-3.81
-1.00,1.52,-0.08,-0.00,-0.50
-1.00,1.55,-0.01,-0.00,-0.00
-1.00,1.58,0.04,0.00,0.06
-1.00,1.63,0.05,0.00,0.16
-1.00,1.69,0.04,0.00,0.09
-1.00,1.73,0.01,0.00,0.00
-1.00,1.76,0.00,0.00,0.00
-1.00,1.80,0.00,0.00,0.00
-1.00,1.86,-0.00,-0.00,-0.00
-1.00,1.94,-0.00,-0.00,-0.00
-1.00,2.00,-0.01,-0.00,-0.00
-1.00,2.05,-0.02,-0.00,-0.01
-1.00,2.09,-0.00,-0.00,-0.00
-1.00,2.10,0.00,0.00,0.00
-1.00,2.09,0.01,0.00,0.00
-1.00,2.09,0.02,0.00,0.00
-1.00,2.08,0.01,0.00,0.00
-1.00,2.00,-0.02,-0.00,-0.00
-1.00,1.92,-0.00,-0.00,-0.00
-1.00,1.80,0.00,0.00,0.00
-1.00,1.70,0.01,0.00,0.00
-1.00,1.61,0.01,0.00,0.00
-1.00,1.58,0.01,0.00,0.00
-1.00,1.50,-0.04,-0.00,-0.05
-1.00,1.47,-0.00,-0.00,-0.00
-1.00,1.49,0.01,0.00,0.00
-1.00,1.52,-0.01,-0.00,-0.00
-1.00,1.55,-0.01,-0.00,-0.00
-1.00,1.59,-0.01,-0.00,-0.00
-1.00,1.59,-0.00,-0.00,-0.00
-1.00,1.61,0.02,0.00,0.01
-1.00,1.63,0.02,0.00,0.01
-1.00,1.63,0.00,0.00,0.00
-1.00,1.63,0.00,0.00,0.00
-1.00,1.62,0.00,0.00,0.00
-1.00,1.60,-0.00,-0.00,-0.00
-1.00,1.56,-0.01,-0.00,-0.00
-1.00,1.47,-0.01,-0.00,-0.00
-1.00,1.42,0.02,0.00,0.01
-1.00,1.39,0.02,0.00,0.01
-1.00,1.44,0.01,0.00,0.00
-1.00,1.42,-0.04,-0.00,-0.06
-1.00,1.46,-0.01,-0.00,-0.00
-1.00,1.51,-0.00,-0.00,-0.00
-1.00,1.57,-0.00,-0.00,-0.00
-1.00,1.64,0.00,0.00,0.00
-1.00,1.72,0.00,0.00,0.00
-1.00,1.76,-0.01,-0.00,-0.00
-1.00,1.79,0.00,0.00,0.00
-1.00,1.79,0.01,0.00,0.00
-1.00,1.80,0.02,0.00,0.00
-1.00,1.81,0.01,0.00,0.00
-1.00,1.85,0.01,0.00,0.00
-1.00,1.88,-0.01,-0.00,-0.00
-1.00,1.93,-0.01,-0.00,-0.00
-1.00,1.96,-0.02,-0.00,-0.00
-1.00,1.99,-0.01,-0.00,-0.00
-1.00,1.99,-0.01,-0.00,-0.00
-1.00,2.03,0.02,0.00,0.01
-1.00,2.07,0.01,0.00,0.00
-1.00,2.13,0.00,0.00,0.00
-1.00,2.15,-0.02,-0.00,-0.00
-1.00,2.23,0.01,0.00,0.00
-1.00,2.29,-0.01,-0.00,-0.00
-1.00,2.26,-0.03,-0.00,-0.04
-1.00,2.18,-0.01,-0.00,-0.00
-1.00,2.10,0.03,0.00,0.03
-1.00,2.00,0.03,0.00,0.03
-1.00,1.93,0.02,0.00,0.01
-1.00,1.87,-0.00,-0.00,-0.00
-1.00,1.83,-0.01,-0.00,-0.00
-1.00,1.76,-0.03,-0.00,-0.04
-1.00,1.71,-0.01,-0.00,-0.00
-1.00,1.63,-0.01,-0.00,-0.00
-1.00,1.59,0.02,0.00,0.00
-1.00,2.05,0.15,0.00,3.49
-1.00,2.52,-0.04,-0.00,-0.08
-1.00,2.47,-0.28,-0.02,-21.28
-1.00,1.79,-0.22,-0.01,-10.70
-1.00,1.41,0.26,0.02,16.58
-1.00,1.43,0.38,0.06,56.26
-1.00,1.52,0.10,0.00,0.92
-1.00,1.55,-0.14,-0.00,-3.00
-1.00,1.57,-0.18,-0.01,-5.81
-1.00,1.59,-0.11,-0.00,-1.38
-1.00,1.55,-0.04,-0.00,-0.08
-1.00,1.60,0.06,0.00,0.20
-1.00,1.64,0.05,0.00,0.17
-1.00,1.71,0.04,0.00,0.07
-1.00,1.76,0.01,0.00,0.00
-1.00,1.81,-0.01,-0.00,-0.00
-1.00,1.83,-0.01,-0.00,-0.00
-1.00,1.85,0.00,0.00,0.00
-1.00,1.87,0.00,0.00,0.00
-1.00,1.91,0.01,0.00,0.00
-1.00,1.92,-0.01,-0.00,-0.00
-1.00,1.97,0.01,0.00,0.00
-1.00,2.02,-0.01,-0.00,-0.00
-1.00,2.05,-0.01,-0.00,-0.00
-1.00,2.04,-0.01,-0.00,-0.00
-1.00,2.03,0.00,0.00,0.00
-1.00,1.96,0.00,0.00,0.00
-1.00,1.89,0.01,0.00,0.00
-1.00,1.79,0.01,0.00,0.00
-1.00,1.68,0.01,0.00,0.00
-1.00,1.62,0.02,0.00,0.01
-1.00,1.54,-0.01,-0.00,-0.00
-1.00,1.48,-0.01,-0.00,-0.00
-1.00,1.46,-0.01,-0.00,-0.00
-1.00,1.43,-0.01,-0.00,-0.00
-1.00,1.44,-0.00,-0.00,-0.00
-1.00,1.47,-0.00,-0.00,-0.00
-1.00,1.51,-0.00,-0.00,-0.00
-1.00,1.55,0.00,0.00,0.00
-1.00,1.61,0.00,0.00,0.00
-1.00,1.61,-0.02,-0.00,-0.00
-1.00,1.62,0.01,0.00,0.00
-1.00,1.69,0.03,0.00,0.04
-1.00,1.75,0.00,0.00,0.00
-1.00,1.76,-0.03,-0.00,-0.02
-1.00,1.80,-0.00,-0.00,-0.00
-1.00,1.81,-0.00,-0.00,-0.00
-1.00,1.85,0.01,0.00,0.00
-1.00,1.86,-0.00,-0.00,-0.00
-1.00,1.88,-0.00,-0.00,-0.00
-1.00,1.88,-0.00,-0.00,-0.00
-1.00,1.88,0.00,0.00,0.00
-1.00,1.87,-0.00,-0.00,-0.00
-1.00,1.87,0.00,0.00,0.00
-1.00,1.84,-0.01,-0.00,-0.00
-1.00,1.83,0.01,0.00,0.00
-1.00,1.80,-0.00,-0.00,-0.00
-1.00,1.79,0.00,0.00,0.00
-1.00,1.77,-0.00,-0.00,-0.00
-1.00,1.76,-0.00,-0.00,-0.00
-1.00,1.69,-0.02,-0.00,-0.01
-1.00,1.62,0.01,0.00,0.00
-1.00,1.58,0.03,0.00,0.02
-1.00,1.58,0.02,0.00,0.00
-1.00,1.58,-0.01,-0.00,-0.00
-1.00,1.58,-0.02,-0.00,-0.00
-1.00,1.59,-0.01,-0.00,-0.00
-1.00,1.61,-0.00,-0.00,-0.00
-1.00,1.62,-0.00,-0.00,-0.00
-1.00,1.64,0.01,0.00,0.00
-1.00,1.67,0.01,0.00,0.00
-1.00,1.72,0.01,0.00,0.00
-1.00,1.79,0.00,0.00,0.00
-1.00,1.86,-0.01,-0.00,-0.00
-1.00,1.83,-0.03,-0.00,-0.04
-1.00,1.83,0.01,0.00,0.00
-1.00,1.80,0.02,0.00,0.00
-1.00,1.80,0.03,0.00,0.02
-1.00,1.78,0.00,0.00,0.00
-1.00,1.77,-0.00,-0.00,-0.00
-1.00,1.76,-0.01,-0.00,-0.00
-1.00,1.77,-0.01,-0.00,-0.00
-1.00,1.72,-0.03,-0.00,-0.02
-1.00,1.76,0.03,0.00,0.02
-1.00,2.23,0.13,0.00,2.08
-1.00,2.70,-0.05,-0.00,-0.12
-1.00,2.52,-0.30,-0.03,-27.49
-1.00,1.74,-0.19,-0.01,-7.28
-1.00,1.36,0.32,0.03,33.20
-1.00,1.45,0.41,0.07,67.08
-1.00,1.55,0.05,0.00,0.12
-1.00,1.60,-0.19,-0.01,-7.30
-1.00,1.62,-0.21,-0.01,-8.72
-1.00,1.64,-0.10,-0.00,-1.12
-1.00,1.64,-0.01,-0.00,-0.00
-1.00,1.64,0.05,0.00,0.11
-1.00,1.63,0.06,0.00,0.26
-1.00,1.67,0.07,0.00,0.28
-1.00,1.70,0.02,0.00,0.01
-1.00,1.74,-0.00,-0.00,-0.00
-1.00,1.77,-0.02,-0.00,-0.01
-1.00,1.81,-0.01,-0.00,-0.00
-1.00,1.80,-0.03,-0.00,-0.02
-1.00,1.88,0.02,0.00,0.01
-1.00,1.96,0.01,0.00,0.00
-1.00,2.03,-0.02,-0.00,-0.00
-1.00,2.06,-0.02,-0.00,-0.01
-1.00,2.07,-0.01,-0.00,-0.00
-1.00,2.05,0.01,0.00,0.00
-1.00,2.03,0.02,0.00,0.01
-1.00,1.98,0.01,0.00,0.00
-1.00,1.91,0.00,0.00,0.00
-1.00,1.79,-0.01,-0.00,-0.00
-1.00,1.68,0.01,0.00,0.00
-1.00,1.59,0.01,0.00,0.00
-1.00,1.52,-0.00,-0.00,-0.00
-1.00,1.46,-0.01,-0.00,-0.00
-1.00,1.44,-0.00,-0.00,-0.00
-1.00,1.44,-0.01,-0.00,-0.00
-1.00,1.46,-0.01,-0.00,-0.00
-1.00,1.49,-0.01,-0.00,-0.00
-1.00,1.55,0.00,0.00,0.00
-1.00,1.58,-0.01,-0.00,-0.00
-1.00,1.63,0.01,0.00,0.00
-1.00,1.62,-0.00,-0.00,-0.00
-1.00,1.62,0.01,0.00,0.00
-1.00,1.60,0.01,0.00,0.00
-1.00,1.61,0.02,0.00,0.01
-1.00,1.59,-0.01,-0.00,-0.00
-1.00,1.60,-0.00,-0.00,-0.00
-1.00,1.59,-0.01,-0.00,-0.00
-1.00,1.62,0.00,0.00,0.00
-1.00,1.58,-0.03,-0.00,-0.02
-1.00,1.55,-0.00,-0.00,-0.00
-1.00,1.56,0.02,0.00,0.01
-1.00,1.63,0.02,0.00,0.01
-1.00,1.64,-0.03,-0.00,-0.02
-1.00,1.67,-0.01,-0.00,-0.00
-1.00,1.65,-0.01,-0.00,-0.00
-1.00,1.64,0.01,0.00,0.00
-1.00,1.60,0.01,0.00,0.00
-1.00,1.58,0.02,0.00,0.01
-1.00,1.56,0.01,0.00,0.00
-1.00,1.55,0.00,0.00,0.00
-1.00,1.55,-0.01,-0.00,-0.00
-1.00,1.58,-0.01,-0.00,-0.00
-1.00,1.57,-0.02,-0.00,-0.01
-1.00,1.59,0.00,0.00,0.00
-1.00,1.60,0.00,0.00,0.00
-1.00,1.64,0.01,0.00,0.00
-1.00,1.67,0.00,0.00,0.00
-1.00,1.65,-0.01,-0.00,-0.00
-1.00,1.66,0.01,0.00,0.00
-1.00,1.67,0.01,0.00,0.00
-1.00,1.64,-0.01,-0.00,-0.00
-1.00,1.65,0.01,0.00,0.00
-1.00,1.70,0.01,0.00,0.00
-1.00,1.74,-0.01,-0.00,-0.00
-1.00,1.72,-0.03,-0.00,-0.03
-1.00,1.71,-0.00,-0.00,-0.00
-1.00,1.67,0.00,0.00,0.00
-1.00,1.67,0.03,0.00,0.02
-1.00,1.66,0.01,0.00,0.00
-1.00,1.62,-0.01,-0.00,-0.00
-1.00,1.58,-0.01,-0.00,-0.00
-1.00,1.61,0.02,0.00,0.01
-1.00,1.63,-0.01,-0.00,-0.00
-1.00,1.59,-0.03,-0.00,-0.03
-1.00,1.84,0.08,0.00,0.46
-1.00,2.52,0.11,0.00,1.26
-1.00,2.64,-0.25,-0.02,-16.50
-1.00,2.13,-0.28,-0.02,-23.09
-1.00,1.46,0.07,0.00,0.37
-1.00,1.39,0.45,0.09,91.03
-1.00,1.50,0.23,0.01,12.58
-1.00,1.56,-0.10,-0.00,-0.91
-1.00,1.58,-0.22,-0.01,-10.34
-1.00,1.62,-0.15,-0.00,-3.39
-1.00,1.64,-0.06,-0.00,-0.25
-1.00,1.67,0.02,0.00,0.01
-1.00,1.66,0.04,0.00,0.07
-1.00,1.65,0.06,0.00,0.17
-1.00,1.63,0.04,0.00,0.08
-1.00,1.67,0.04,0.00,0.06
-1.00,1.68,-0.01,-0.00,-0.00
-1.00,1.72,-0.01,-0.00,-0.00
-1.00,1.76,-0.02,-0.00,-0.01
-1.00,1.81,-0.02,-0.00,-0.00
-1.00,1.85,-0.01,-0.00,-0.00
-1.00,1.89,-0.00,-0.00,-0.00
-1.00,1.93,0.01,0.00,0.00
-1.00,1.99,0.01,0.00,0.00
-1.00,1.97,-0.02,-0.00,-0.01
-1.00,1.96,0.01,0.00,0.00
-1.00,1.91,0.00,0.00,0.00
-1.00,1.85,0.01,0.00,0.00
-1.00,1.73,-0.00,-0.00,-0.00
-1.00,1.64,0.02,0.00,0.01
-1.00,1.55,0.01,0.00,0.00
-1.00,1.52,0.01,0.00,0.00
-1.00,1.50,-0.02,-0.00,-0.00
-1.00,1.49,-0.02,-0.00,-0.01
-1.00,1.50,-0.02,-0.00,-0.01
-1.00,1.52,-0.00,-0.00,-0.00
-1.00,1.51,-0.02,-0.00,-0.00
-1.00,1.49,0.01,0.00,0.00
-1.00,1.48,0.02,0.00,0.01
-1.00,1.50,0.03,0.00,0.02
-1.00,1.51,0.00,0.00,0.00
-1.00,1.52,-0.01,-0.00,-0.00
-1.00,1.52,-0.01,-0.00,-0.00
-1.00,1.58,0.01,0.00,0.00
-1.00,1.60,-0.01,-0.00,-0.00
-1.00,1.70,0.01,0.00,0.00
-1.00,1.77,-0.01,-0.00,-0.00
-1.00,1.83,-0.01,-0.00,-0.00
-1.00,1.84,-0.02,-0.00,-0.00
-1.00,1.89,0.02,0.00,0.01
-1.00,1.85,-0.01,-0.00,-0.00
-1.00,1.85,0.02,0.00,0.01
-1.00,1.83,0.01,0.00,0.00
-1.00,1.81,0.00,0.00,0.00
-1.00,1.81,-0.00,-0.00,-0.00
-1.00,1.80,-0.01,-0.00,-0.00
-1.00,1.77,-0.02,-0.00,-0.01
-1.00,1.71,-0.01,-0.00,-0.00
-1.00,1.70,0.02,0.00,0.01
-1.00,1.73,0.02,0.00,0.01
-1.00,1.73,-0.02,-0.00,-0.00
-1.00,1.74,-0.01,-0.00,-0.00
-1.00,1.74,-0.01,-0.00,-0.00
-1.00,1.75,0.01,0.00,0.00
-1.00,1.75,-0.00,-0.00,-0.00
-1.00,1.77,0.01,0.00,0.00
-1.00,1.75,-0.01,-0.00,-0.00
-1.00,1.77,0.01,0.00,0.00
-1.00,1.76,-0.00,-0.00,-0.00
-1.00,1.76,0.00,0.00,0.00
-1.00,1.75,-0.00,-0.00,-0.00
-1.00,1.77,0.01,0.00,0.00
-1.00,1.74,-0.01,-0.00,-0.00
-1.00,1.75,0.01,0.00,0.00
-1.00,1.74,-0.01,-0.00,-0.00
-1.00,1.74,0.00,0.00,0.00
-1.00,1.74,0.00,0.00,0.00
-1.00,1.80,0.01,0.00,0.00
-1.00,1.78,-0.03,-0.00,-0.02
-1.00,1.76,-0.01,-0.00,-0.00
-1.00,1.70,-0.00,-0.00,-0.00
-1.00,1.68,0.03,0.00,0.03
-1.00,1.64,0.01,0.00,0.00
-1.00,1.65,0.01,0.00,0.00
-1.00,1.65,-0.01,-0.00,-0.00
-1.00,1.68,-0.01,-0.00,-0.00
-1.00,1.67,-0.02,-0.00,-0.01
-1.00,1.60,-0.02,-0.00,-0.01
-1.00,1.56,0.02,0.00,0.01
-1.00,2.14,0.20,0.01,7.52
-1.00,2.56,-0.09,-0.00,-0.74
-1.00,2.47,-0.29,-0.02,-23.18
-1.00,1.74,-0.21,-0.01,-9.50
-1.00,1.35,0.28,0.02,22.77
-1.00,1.32,0.38,0.05,53.90
-1.00,1.38,0.09,0.00,0.86
-1.00,1.39,-0.15,-0.00,-3.28
-1.00,1.43,-0.18,-0.01,-5.90
-1.00,1.45,-0.12,-0.00,-1.95
-1.00,1.49,-0.03,-0.00,-0.03
-1.00,1.51,0.02,0.00,0.01
-1.00,1.57,0.06,0.00,0.21
-1.00,1.60,0.04,0.00,0.07
-1.00,1.67,0.04,0.00,0.05
-1.00,1.72,0.01,0.00,0.00
-1.00,1.76,-0.01,-0.00,-0.00
-1.00,1.78,-0.01,-0.00,-0.00
-1.00,1.84,0.01,0.00,0.00
-1.00,1.86,-0.02,-0.00,-0.00
-1.00,1.91,0.00,0.00,0.00
-1.00,1.93,-0.01,-0.00,-0.00
-1.00,1.98,0.01,0.00,0.00
-1.00,2.00,-0.01,-0.00,-0.00
-1.00,2.05,0.01,0.00,0.00
-1.00,2.04,-0.02,-0.00,-0.00
-1.00,2.02,0.00,0.00,0.00
-1.00,1.92,-0.01,-0.00,-0.00
-1.00,1.87,0.03,0.00,0.03
-1.00,1.73,-0.00,-0.00,-0.00
-1.00,1.68,0.03,0.00,0.04
-1.00,1.62,-0.00,-0.00,-0.00
-1.00,1.64,-0.00,-0.00,-0.00
-1.00,1.58,-0.05,-0.00,-0.14
-1.00,1.60,-0.00,-0.00,-0.00
-1.00,1.60,-0.01,-0.00,-0.00
-1.00,1.63,0.01,0.00,0.00
-1.00,1.62,-0.01,-0.00,-0.00
-1.00,1.64,0.01,0.00,0.00
-1.00,1.63,0.00,0.00,0.00
-1.00,1.64,0.01,0.00,0.00
-1.00,1.62,-0.00,-0.00,-0.00
-1.00,1.67,0.02,0.00,0.01
-1.00,1.66,-0.02,-0.00,-0.00
-1.00,1.68,-0.00,-0.00,-0.00
-1.00,1.65,-0.02,-0.00,-0.00
-1.00,1.65,0.01,0.00,0.00
-1.00,1.65,0.01,0.00,0.00
-1.00,1.65,0.00,0.00,0.00
-1.00,1.64,-0.01,-0.00,-0.00
-1.00,1.65,0.00,0.00,0.00
-1.00,1.63,-0.01,-0.00,-0.00
-1.00,1.65,0.01,0.00,0.00
-1.00,1.64,-0.01,-0.00,-0.00
-1.00,1.67,0.01,0.00,0.00
-1.00,1.67,-0.01,-0.00,-0.00
-1.00,1.69,-0.00,-0.00,-0.00
-1.00,1.70,-0.00,-0.00,-0.00
-1.00,1.72,0.01,0.00,0.00
-1.00,1.68,-0.02,-0.00,-0.01
-1.00,1.64,0.01,0.00,0.00
-1.00,1.62,0.02,0.00,0.01
-1.00,1.67,0.03,0.00,0.02
-1.00,1.65,-0.03,-0.00,-0.02
-1.00,1.68,-0.01,-0.00,-0.00
-1.00,1.68,-0.02,-0.00,-0.00
-1.00,1.72,0.01,0.00,0.00
-1.00,1.74,-0.00,-0.00,-0.00
-1.00,1.74,-0.00,-0.00,-0.00
-1.00,1.73,0.00,0.00,0.00
-1.00,1.74,0.02,0.00,0.01
-1.00,1.75,0.00,0.00,0.00
-1.00,1.77,0.00,0.00,0.00
-1.00,1.73,-0.02,-0.00,-0.01
-1.00,1.75,0.02,0.00,0.01
-1.00,1.73,-0.01,-0.00,-0.00
-1.00,1.75,0.01,0.00,0.00
-1.00,1.75,-0.01,-0.00,-0.00
-1.00,1.74,-0.01,-0.00,-0.00
-1.00,1.74,0.00,0.00,0.00
-1.00,1.81,0.02,0.00,0.01
-1.00,1.82,-0.02,-0.00,-0.01
-1.00,1.84,-0.01,-0.00,-0.00
-1.00,1.79,-0.02,-0.00,-0.01
-1.00,1.78,0.02,0.00,0.01
-1.00,1.77,0.02,0.00,0.01
-1.00,1.79,0.01,0.00,0.00
-1.00,1.75,-0.02,-0.00,-0.01
-1.00,1.76,0.00,0.00,0.00
-1.00,1.77,-0.00,-0.00,-0.00
-1.00,1.75,-0.01,-0.00,-0.00
-1.00,1.64,-0.03,-0.00,-0.02
-1.00,2.08,0.17,0.01,5.03
-1.00,2.67,0.02,0.00,0.01
-1.00,2.70,-0.29,-0.02,-24.88
-1.00,1.98,-0.29,-0.03,-25.59
-1.00,1.46,0.21,0.01,9.55
-1.00,1.45,0.44,0.09,87.55
-1.00,1.57,0.16,0.00,4.18
-1.00,1.59,-0.16,-0.00,-4.02
-1.00,1.64,-0.20,-0.01,-7.73
-1.00,1.63,-0.15,-0.00,-3.06
-1.00,1.68,-0.02,-0.00,-0.01
-1.00,1.68,0.02,0.00,0.01
-1.00,1.73,0.07,0.00,0.28
-1.00,1.74,0.04,0.00,0.05
-1.00,1.81,0.05,0.00,0.11
-1.00,1.83,-0.00,-0.00,-0.00
-1.00,1.87,-0.00,-0.00,-0.00
-1.00,1.88,-0.02,-0.00,-0.00
-1.00,1.94,0.01,0.00,0.00
-1.00,1.98,-0.01,-0.00,-0.00
-1.00,2.00,-0.02,-0.00,-0.01
-1.00,2.02,-0.01,-0.00,-0.00
-1.00,2.06,0.01,0.00,0.00
-1.00,2.07,-0.00,-0.00,-0.00
-1.00,2.11,0.01,0.00,0.00
-1.00,2.09,-0.01,-0.00,-0.00
-1.00,2.08,0.00,0.00,0.00
-1.00,1.99,-0.01,-0.00,-0.00
-1.00,1.90,0.01,0.00,0.00
-1.00,1.72,-0.01,-0.00,-0.00
-1.00,1.55,0.03,0.00,0.02
-1.00,1.48,0.05,0.00,0.09
-1.00,1.48,0.01,0.00,0.00
-1.00,1.48,-0.04,-0.00,-0.08
-1.00,1.51,-0.04,-0.00,-0.06
-1.00,1.53,-0.03,-0.00,-0.04
-1.00,1.58,-0.00,-0.00,-0.00
-1.00,1.59,0.00,0.00,0.00
-1.00,1.61,0.02,0.00,0.01
-1.00,1.60,0.01,0.00,0.00
-1.00,1.64,0.03,0.00,0.03
-1.00,1.64,-0.00,-0.00,-0.00
-1.00,1.69,0.01,0.00,0.00
-1.00,1.68,-0.02,-0.00,-0.01
-1.00,1.72,0.00,0.00,0.00
-1.00,1.69,-0.02,-0.00,-0.01
-1.00,1.70,0.01,0.00,0.00
-1.00,1.66,-0.01,-0.00,-0.00
-1.00,1.67,0.02,0.00,0.01
-1.00,1.64,-0.01,-0.00,-0.00
-1.00,1.64,0.01,0.00,0.00
-1.00,1.61,-0.01,-0.00,-0.00
-1.00,1.66,0.02,0.00,0.00
-1.00,1.66,-0.02,-0.00,-0.00
-1.00,1.70,-0.00,-0.00,-0.00
-1.00,1.70,-0.01,-0.00,-0.00
-1.00,1.71,0.00,0.00,0.00
-1.00,1.67,-0.00,-0.00,-0.00
-1.00,1.62,0.01,0.00,0.00
-1.00,1.53,0.01,0.00,0.00
-1.00,1.44,0.01,0.00,0.00
-1.00,1.41,0.03,0.00,0.04
-1.00,1.51,0.03,0.00,0.03
-1.00,1.53,-0.05,-0.00,-0.15
-1.00,1.59,-0.04,-0.00,-0.06
-1.00,1.60,-0.03,-0.00,-0.04
-1.00,1.64,0.01,0.00,0.00
-1.00,1.63,0.01,0.00,0.00
-1.00,1.73,0.05,0.00,0.14
-1.00,1.78,-0.00,-0.00,-0.00
-1.00,1.82,-0.01,-0.00,-0.00
-1.00,1.79,-0.02,-0.00,-0.01
-1.00,1.81,0.02,0.00,0.01
-1.00,1.78,0.00,0.00,0.00
-1.00,1.81,0.02,0.00,0.01
-1.00,1.76,-0.02,-0.00,-0.01
-1.00,1.77,0.01,0.00,0.00
-1.00,1.77,-0.00,-0.00,-0.00
-1.00,1.81,0.00,0.00,0.00
-1.00,1.78,-0.03,-0.00,-0.03
-1.00,1.78,0.00,0.00,0.00
-1.00,1.73,-0.01,-0.00,-0.00
-1.00,1.73,0.03,0.00,0.02
-1.00,1.70,0.00,0.00,0.00
-1.00,1.72,0.01,0.00,0.00
-1.00,1.70,-0.01,-0.00,-0.00
-1.00,1.74,0.00,0.00,0.00
-1.00,1.71,-0.02,-0.00,-0.01
-1.00,1.69,-0.00,-0.00,-0.00
-1.00,1.83,0.06,0.00,0.19
-1.00,2.47,0.14,0.00,2.49
-1.00,2.55,-0.24,-0.01,-14.01
-1.00,2.13,-0.24,-0.01,-14.57
-1.00,1.46,0.02,0.00,0.01
-1.00,1.37,0.41,0.07,68.58
-1.00,1.47,0.23,0.01,11.72
-1.00,1.57,-0.07,-0.00,-0.39
-1.00,1.58,-0.22,-0.01,-10.18
-1.00,1.63,-0.14,-0.00,-2.66
-1.00,1.67,-0.06,-0.00,-0.18
-1.00,1.73,0.02,0.00,0.01
-1.00,1.73,0.03,0.00,0.04
-1.00,1.79,0.07,0.00,0.32
-1.00,1.76,0.01,0.00,0.00
-1.00,1.81,0.04,0.00,0.07
-1.00,1.82,-0.00,-0.00,-0.00
-1.00,1.88,0.00,0.00,0.00
-1.00,1.89,-0.03,-0.00,-0.02
-1.00,1.94,-0.01,-0.00,-0.00
-1.00,1.92,-0.02,-0.00,-0.01
-1.00,1.97,0.02,0.00,0.01
-1.00,1.98,-0.00,-0.00,-0.00
-1.00,2.05,0.01,0.00,0.00
-1.00,2.03,-0.03,-0.00,-0.02
-1.00,2.02,0.00,0.00,0.00
-1.00,1.96,-0.00,-0.00,-0.00
-1.00,1.92,0.02,0.00,0.01
-1.00,1.79,-0.01,-0.00,-0.00
-1.00,1.70,0.02,0.00,0.01
-1.00,1.58,0.00,0.00,0.00
-1.00,1.54,0.02,0.00,0.01
-1.00,1.44,-0.03,-0.00,-0.03
-1.00,1.37,-0.01,-0.00,-0.00
-1.00,1.38,0.01,0.00,0.00
-1.00,1.48,0.01,0.00,0.00
-1.00,1.52,-0.04,-0.00,-0.09
-1.00,1.57,-0.02,-0.00,-0.01
-1.00,1.56,-0.02,-0.00,-0.01
-1.00,1.65,0.05,0.00,0.10
-1.00,1.62,-0.01,-0.00,-0.00
-1.00,1.64,0.03,0.00,0.02
-1.00,1.60,0.00,0.00,0.00
-1.00,1.65,0.03,0.00,0.02
-1.00,1.61,-0.02,-0.00,-0.01
-1.00,1.64,0.00,0.00,0.00
-1.00,1.60,-0.03,-0.00,-0.02
-1.00,1.58,0.00,0.00,0.00
-1.00,1.52,-0.01,-0.00,-0.00
-1.00,1.49,0.02,0.00,0.01
-1.00,1.42,-0.00,-0.00,-0.00
-1.00,1.41,0.02,0.00,0.01
-1.00,1.39,-0.00,-0.00,-0.00
-1.00,1.44,0.01,0.00,0.00
-1.00,1.45,-0.03,-0.00,-0.02
-1.00,1.54,0.01,0.00,0.00
-1.00,1.62,-0.02,-0.00,-0.00
-1.00,1.72,-0.00,-0.00,-0.00
-1.00,1.78,-0.01,-0.00,-0.00
-1.00,1.85,0.01,0.00,0.00
-1.00,1.86,-0.00,-0.00,-0.00
-1.00,1.89,0.02,0.00,0.01
-1.00,1.87,0.01,0.00,0.00
-1.00,1.84,0.01,0.00,0.00
-1.00,1.75,-0.01,-0.00,-0.00
-1.00,1.78,0.04,0.00,0.05
-1.00,1.75,-0.02,-0.00,-0.01
-1.00,1.75,-0.01,-0.00,-0.00
-1.00,1.68,-0.04,-0.00,-0.05
-1.00,1.62,0.00,0.00,0.00
-1.00,1.51,-0.00,-0.00,-0.00
-1.00,1.44,0.03,0.00,0.03
-1.00,1.39,0.02,0.00,0.01
-1.00,1.44,0.02,0.00,0.01
-1.00,1.48,-0.03,-0.00,-0.02
-1.00,1.56,-0.02,-0.00,-0.01
-1.00,1.59,-0.04,-0.00,-0.07
-1.00,1.66,0.00,0.00,0.00
-1.00,1.65,-0.01,-0.00,-0.00
-1.00,1.68,0.04,0.00,0.05
-1.00,1.72,0.03,0.00,0.02
-1.00,1.84,0.04,0.00,0.05
-1.00,1.85,-0.05,-0.00,-0.10
-1.00,1.88,-0.01,-0.00,-0.00
-1.00,1.84,-0.02,-0.00,-0.00
-1.00,1.82,0.02,0.00,0.01
-1.00,1.78,0.01,0.00,0.00
-1.00,1.81,0.03,0.00,0.02
-1.00,1.78,-0.02,-0.00,-0.01
-1.00,1.81,-0.00,-0.00,-0.00
-1.00,1.76,-0.03,-0.00,-0.03
-1.00,1.73,-0.01,-0.00,-0.00
-1.00,1.78,0.04,0.00,0.05
-1.00,2.37,0.16,0.00,3.77
-1.00,2.57,-0.18,-0.01,-5.54
-1.00,2.33,-0.24,-0.01,-14.14
-1.00,1.62,-0.09,-0.00,-0.84
-1.00,1.44,0.36,0.05,47.43
-1.00,1.52,0.29,0.02,23.54
-1.00,1.59,-0.02,-0.00,-0.01
-1.00,1.59,-0.19,-0.01,-6.58
-1.00,1.63,-0.14,-0.00,-3.04
-1.00,1.64,-0.08,-0.00,-0.50
-1.00,1.70,0.02,0.00,0.00
-1.00,1.69,0.02,0.00,0.01
-1.00,1.74,0.06,0.00,0.23
-1.00,1.74,0.02,0.00,0.01
-1.00,1.79,0.03,0.00,0.03
-1.00,1.78,-0.01,-0.00,-0.00
-1.00,1.84,0.02,0.00,0.00
-1.00,1.83,-0.03,-0.00,-0.02
-1.00,1.88,0.00,0.00,0.00
-1.00,1.89,-0.02,-0.00,-0.00
-1.00,1.96,0.01,0.00,0.00
-1.00,1.96,-0.02,-0.00,-0.01
-1.00,2.02,0.02,0.00,0.00
-1.00,1.99,-0.02,-0.00,-0.01
-1.00,2.00,0.01,0.00,0.00
-1.00,1.95,-0.00,-0.00,-0.00
-1.00,1.95,0.03,0.00,0.02
-1.00,1.84,-0.02,-0.00,-0.01
-1.00,1.75,0.01,0.00,0.00
-1.00,1.63,0.00,0.00,0.00
-1.00,1.58,0.03,0.00,0.04
-1.00,1.48,-0.02,-0.00,-0.01
-1.00,1.39,-0.01,-0.00,-0.00
-1.00,1.31,-0.01,-0.00,-0.00
-1.00,1.33,0.02,0.00,0.01
-1.00,1.33,-0.02,-0.00,-0.01
-1.00,1.38,-0.01,-0.00,-0.00
-1.00,1.38,-0.03,-0.00,-0.02
-1.00,1.44,0.01,0.00,0.00
-1.00,1.46,-0.00,-0.00,-0.00
-1.00,1.52,0.02,0.00,0.01
-1.00,1.53,-0.01,-0.00,-0.00
-1.00,1.58,0.02,0.00,0.01
-1.00,1.59,-0.01,-0.00,-0.00
-1.00,1.65,0.01,0.00,0.00
-1.00,1.64,-0.02,-0.00,-0.01
-1.00,1.69,0.01,0.00,0.00
-1.00,1.66,-0.02,-0.00,-0.01
-1.00,1.72,0.02,0.00,0.01
-1.00,1.70,-0.02,-0.00,-0.01
-1.00,1.75,0.01,0.00,0.00
-1.00,1.72,-0.02,-0.00,-0.01
-1.00,1.74,0.02,0.00,0.00
-1.00,1.71,-0.01,-0.00,-0.00
-1.00,1.73,0.02,0.00,0.01
-1.00,1.70,-0.01,-0.00,-0.00
-1.00,1.73,0.01,0.00,0.00
-1.00,1.69,-0.02,-0.00,-0.01
-1.00,1.72,0.02,0.00,0.00
-1.00,1.68,-0.02,-0.00,-0.01
-1.00,1.71,0.02,0.00,0.00
-1.00,1.67,-0.02,-0.00,-0.00
-1.00,1.70,0.02,0.00,0.01
-1.00,1.64,-0.02,-0.00,-0.01
-1.00,1.68,0.03,0.00,0.03
-1.00,1.68,-0.01,-0.00,-0.00
-1.00,1.77,0.02,0.00,0.01
-1.00,1.80,-0.03,-0.00,-0.03
-1.00,1.82,-0.02,-0.00,-0.01
-1.00,1.80,-0.01,-0.00,-0.00
-1.00,1.82,0.03,0.00,0.03
-1.00,1.76,-0.00,-0.00,-0.00
-1.00,1.79,0.03,0.00,0.04
-1.00,1.76,-0.01,-0.00,-0.00
-1.00,1.81,0.01,0.00,0.00
-1.00,1.77,-0.03,-0.00,-0.03
-1.00,1.79,0.00,0.00,0.00
-1.00,1.74,-0.02,-0.00,-0.01
-1.00,1.80,0.03,0.00,0.03
-1.00,1.79,-0.01,-0.00,-0.00
-1.00,1.84,0.01,0.00,0.00
-1.00,1.78,-0.03,-0.00,-0.04
-1.00,1.77,0.02,0.00,0.00
-1.00,1.68,-0.01,-0.00,-0.00
-1.00,1.68,0.04,0.00,0.06
-1.00,1.64,-0.00,-0.00,-0.00
-1.00,1.65,0.01,0.00,0.00
-1.00,1.59,-0.03,-0.00,-0.04
-1.00,1.58,0.00,0.00,0.00
-1.00,1.39,-0.05,-0.00,-0.11
-1.00,1.53,0.11,0.00,1.34
-1.00,2.11,0.14,0.00,2.64
-1.00,2.31,-0.20,-0.01,-8.18
-1.00,1.74,-0.34,-0.04,-40.91
-1.00,0.96,0.01,0.00,0.00
-1.00,0.81,0.45,0.09,92.38
-1.00,0.91,0.27,0.02,20.66
-1.00,0.73,-0.15,-0.00,-3.39
-1.00,0.28,-0.27,-0.02,-19.48
-1.00,0.07,-0.02,-0.00,-0.01
-1.00,0.00,0.06,0.00,0.21
-1.00,0.00,0.01,0.00,0.00
-1.00,0.00,-0.04,-0.00,-0.06
-1.00,0.00,-0.04,-0.00,-0.06
-1.00,0.00,-0.01,-0.00,-0.00
-1.00,0.00,0.02,0.00,0.01
-1.00,0.00,0.03,0.00,0.03
-1.00,0.00,0.03,0.00,0.02
-1.00,0.00,0.02,0.00,0.01
-1.00,0.00,0.01,0.00,0.00
-1.00,0.00,-0.01,-0.00,-0.00
-1.00,0.00,-0.01,-0.00,-0.00
-1.00,0.00,-0.01,-0.00,-0.00
-1.00,0.00,-0.01,-0.00,-0.00
-1.00,0.00,-0.00,-0.00,-0.00
-1.00,0.00,-0.00,-0.00,-0.00
-1.00,0.00,-0.00,-0.00,-0.00
-1.00,0.00,0.00,0.00,0.00
-1.00,0.00,0.00,0.00,0.00
-1.00,0.00,0.00,0.00,0.00
-1.00,0.00,0.00,0.00,0.00
-1.00,0.00,0.00,0.00,0.00
-1.00,0.00,-0.00,-0.00,-0.00
-1.00,0.00,-0.00,-0.00,-0.00
-1.00,0.10,0.03,0.00,0.02
-1.00,0.15,-0.02,-0.00,-0.02
-1.00,0.34,0.02,0.00,0.01
-1.00,0.49,-0.03,-0.00,-0.03
-1.00,0.67,-0.01,-0.00,-0.00
-1.00,0.78,-0.03,-0.00,-0.03
-1.00,0.92,0.02,0.00,0.01
-1.00,1.00,0.01,0.00,0.00
-1.00,1.15,0.04,0.00,0.07
-1.00,1.25,0.00,0.00,0.00
-1.00,1.41,0.01,0.00,0.00
-1.00,1.51,-0.03,-0.00,-0.02
-1.00,1.70,0.01,0.00,0.00
-1.00,1.80,-0.03,-0.00,-0.04
-1.00,2.03,0.03,0.00,0.02
-1.00,2.19,-0.02,-0.00,-0.01
-1.00,2.44,0.02,0.00,0.00
-1.00,2.57,-0.04,-0.00,-0.06
-1.00,2.73,0.01,0.00,0.00
-1.00,2.76,-0.01,-0.00,-0.00
-1.00,2.81,0.04,0.00,0.05
-1.00,2.72,-0.00,-0.00,-0.00
-1.00,2.73,0.06,0.00,0.20
-1.00,2.61,-0.02,-0.00,-0.01
-1.00,2.61,0.03,0.00,0.03
-1.00,2.49,-0.04,-0.00,-0.07
-1.00,2.50,0.01,0.00,0.00
-1.00,2.42,-0.04,-0.00,-0.07
-1.00,2.45,0.01,0.00,0.00
-1.00,2.38,-0.04,-0.00,-0.05
-1.00,2.39,0.02,0.00,0.01
-1.00,2.27,-0.02,-0.00,-0.01
-1.00,2.32,0.06,0.00,0.23
-1.00,2.29,-0.01,-0.00,-0.00
-1.00,2.38,0.02,0.00,0.01
-1.00,2.30,-0.06,-0.00,-0.24
-1.00,2.35,0.02,0.00,0.01
-1.00,2.27,-0.02,-0.00,-0.01
-1.00,2.33,0.05,0.00,0.12
-1.00,2.30,-0.01,-0.00,-0.00
-1.00,2.31,-0.00,-0.00,-0.00
-1.00,2.21,-0.03,-0.00,-0.03
-1.00,2.21,0.03,0.00,0.04
-1.00,2.10,-0.02,-0.00,-0.01
-1.00,2.14,0.04,0.00,0.08
-1.00,2.06,-0.03,-0.00,-0.03
-1.00,2.11,0.02,0.00,0.00
-1.00,2.03,-0.04,-0.00,-0.08
-1.00,2.09,0.03,0.00,0.02
-1.00,1.99,-0.04,-0.00,-0.08
-1.00,2.05,0.05,0.00,0.10
-1.00,2.46,0.11,0.00,1.46
-1.00,2.91,-0.04,-0.00,-0.04
-1.00,2.67,-0.31,-0.03,-28.59
-1.00,1.97,-0.15,-0.00,-3.31
-1.00,1.56,0.28,0.02,22.30
-1.00,1.65,0.39,0.06,59.25
-1.00,1.68,0.02,0.00,0.01
-1.00,1.76,-0.15,-0.00,-3.48
-1.00,1.74,-0.21,-0.01,-9.32
-1.00,1.81,-0.08,-0.00,-0.61
-1.00,1.74,-0.05,-0.00,-0.10
-1.00,1.80,0.08,0.00,0.47
-1.00,1.78,0.05,0.00,0.10
-1.00,1.88,0.07,0.00,0.41
-1.00,1.86,-0.01,-0.00,-0.00
-1.00,1.95,0.03,0.00,0.02
-1.00,1.92,-0.04,-0.00,-0.08
-1.00,1.99,0.02,0.00,0.01
-1.00,1.95,-0.03,-0.00,-0.03
-1.00,2.04,0.03,0.00,0.03
-1.00,2.03,-0.03,-0.00,-0.02
-1.00,2.12,0.02,0.00,0.01
-1.00,2.08,-0.04,-0.00,-0.06
-1.00,2.15,0.03,0.00,0.02
-1.00,2.06,-0.03,-0.00,-0.03
-1.00,2.10,0.04,0.00,0.07
-1.00,1.98,-0.03,-0.00,-0.03
-1.00,1.95,0.03,0.00,0.03
-1.00,1.77,-0.02,-0.00,-0.01
-1.00,1.69,0.03,0.00,0.04
-1.00,1.49,-0.02,-0.00,-0.01
-1.00,1.42,0.03,0.00,0.04
-1.00,1.27,-0.02,-0.00,-0.01
-1.00,1.16,-0.00,-0.00,-0.00
-1.00,0.94,-0.04,-0.00,-0.09
-1.00,0.73,0.01,0.00,0.00
-1.00,0.50,0.02,0.00,0.01
-1.00,0.35,0.04,0.00,0.08
-1.00,0.22,0.01,0.00,0.00
-1.00,0.23,0.02,0.00,0.00
-1.00,0.22,-0.05,-0.00,-0.09
-1.00,0.31,-0.02,-0.00,-0.01
-1.00,0.40,-0.03,-0.00,-0.03
-1.00,0.60,0.01,0.00,0.00
-1.00,0.77,-0.01,-0.00,-0.00
-1.00,0.99,0.01,0.00,0.00
-1.00,1.11,-0.02,-0.00,-0.01
-1.00,1.29,0.03,0.00,0.04
-1.00,1.35,-0.00,-0.00,-0.00
-1.00,1.51,0.05,0.00,0.13
-1.00,1.54,-0.02,-0.00,-0.00
-1.00,1.63,0.02,0.00,0.01
-1.00,1.59,-0.03,-0.00,-0.03
-1.00,1.66,0.03,0.00,0.02
-1.00,1.60,-0.03,-0.00,-0.04
-1.00,1.67,0.03,0.00,0.03
-1.00,1.59,-0.04,-0.00,-0.08
-1.00,1.63,0.02,0.00,0.01
-1.00,1.59,-0.02,-0.00,-0.01
-1.00,1.72,0.04,0.00,0.06
-1.00,1.65,-0.06,-0.00,-0.23
-1.00,1.65,0.00,0.00,0.00
-1.00,1.51,-0.02,-0.00,-0.01
-1.00,1.48,0.06,0.00,0.19
-1.00,1.37,0.01,0.00,0.00
-1.00,1.38,0.04,0.00,0.07
-1.00,1.33,-0.03,-0.00,-0.02
-1.00,1.42,0.01,0.00,0.00
-1.00,1.42,-0.05,-0.00,-0.13
-1.00,1.54,0.01,0.00,0.00
-1.00,1.55,-0.04,-0.00,-0.06
-1.00,1.62,0.01,0.00,0.00
-1.00,1.59,-0.01,-0.00,-0.00
-1.00,1.73,0.07,0.00,0.37
-1.00,1.74,-0.02,-0.00,-0.01
-1.00,1.89,0.03,0.00,0.03
-1.00,1.87,-0.06,-0.00,-0.21
-1.00,1.98,0.02,0.00,0.01
-1.00,1.94,-0.03,-0.00,-0.03
-1.00,2.04,0.05,0.00,0.10
-1.00,2.00,-0.03,-0.00,-0.02
-1.00,2.11,0.04,0.00,0.05
-1.00,2.08,-0.03,-0.00,-0.04
-1.00,2.18,0.02,0.00,0.01
-1.00,2.11,-0.05,-0.00,-0.11
-1.00,2.55,0.14,0.00,2.81
-1.00,2.98,-0.02,-0.00,-0.01
-1.00,3.07,-0.20,-0.01,-7.98
-1.00,2.39,-0.26,-0.02,-18.47
-1.00,2.00,0.22,0.01,10.33
-1.00,1.95,0.35,0.04,43.70
-1.00,2.08,0.15,0.00,3.32
-1.00,2.05,-0.16,-0.00,-3.96
-1.00,2.16,-0.14,-0.00,-2.79
-1.00,2.17,-0.14,-0.00,-2.89
-1.00,2.29,-0.01,-0.00,-0.00
-1.00,2.28,-0.02,-0.00,-0.01
-1.00,2.39,0.08,0.00,0.43
-1.00,2.38,0.02,0.00,0.01
-1.00,2.45,0.06,0.00,0.20
-1.00,2.37,-0.02,-0.00,-0.01
-1.00,2.39,0.04,0.00,0.06
-1.00,2.30,-0.02,-0.00,-0.01
-1.00,2.31,0.03,0.00,0.02
-1.00,2.32,-0.00,-0.00,-0.00
-1.00,2.49,0.02,0.00,0.01
-1.00,2.54,-0.07,-0.00,-0.42
-1.00,2.66,-0.02,-0.00,-0.01
-1.00,2.61,-0.05,-0.00,-0.14
-1.00,2.62,0.04,0.00,0.06
-1.00,2.47,0.01,0.00,0.00
-1.00,2.41,0.07,0.00,0.34
-1.00,2.20,-0.01,-0.00,-0.00
-1.00,2.08,0.04,0.00,0.05
-1.00,1.87,-0.02,-0.00,-0.01
-1.00,1.78,0.02,0.00,0.01
-1.00,1.67,-0.03,-0.00,-0.02
-1.00,1.68,-0.00,-0.00,-0.00
-1.00,1.62,-0.05,-0.00,-0.16
-1.00,1.67,0.00,0.00,0.00
-1.00,1.59,-0.04,-0.00,-0.08
-1.00,1.63,0.04,0.00,0.06
-1.00,1.61,0.01,0.00,0.00
-1.00,1.69,0.04,0.00,0.06
-1.00,1.66,-0.02,-0.00,-0.01
-1.00,1.72,0.02,0.00,0.01
-1.00,1.67,-0.02,-0.00,-0.01
-1.00,1.66,0.01,0.00,0.00
-1.00,1.56,-0.01,-0.00,-0.00
-1.00,1.52,0.03,0.00,0.02
-1.00,1.40,-0.01,-0.00,-0.00
-1.00,1.30,0.01,0.00,0.00
-1.00,1.21,0.00,0.00,0.00
-1.00,1.14,0.00,0.00,0.00
-1.00,1.09,-0.01,-0.00,-0.00
-1.00,1.14,0.01,0.00,0.00
-1.00,1.14,-0.04,-0.00,-0.05
-1.00,1.21,-0.01,-0.00,-0.00
-1.00,1.25,-0.02,-0.00,-0.01
-1.00,1.34,0.01,0.00,0.00
-1.00,1.39,-0.00,-0.00,-0.00
-1.00,1.48,0.02,0.00,0.01
-1.00,1.52,-0.00,-0.00,-0.00
-1.00,1.58,0.02,0.00,0.00
-1.00,1.59,-0.00,-0.00,-0.00
-1.00,1.65,0.02,0.00,0.00
-1.00,1.65,-0.01,-0.00,-0.00
-1.00,1.70,0.01,0.00,0.00
-1.00,1.69,-0.02,-0.00,-0.01
-1.00,1.77,0.02,0.00,0.01
-1.00,1.79,-0.02,-0.00,-0.01
-1.00,1.86,0.00,0.00,0.00
-1.00,1.91,-0.01,-0.00,-0.00
-1.00,1.98,0.01,0.00,0.00
-1.00,1.96,-0.02,-0.00,-0.01
-1.00,2.07,0.04,0.00,0.06
-1.00,2.04,-0.02,-0.00,-0.02
-1.00,2.05,0.01,0.00,0.00
-1.00,1.95,-0.02,-0.00,-0.00
-1.00,1.87,0.02,0.00,0.01
-1.00,1.77,0.02,0.00,0.01
-1.00,1.77,0.04,0.00,0.05
-1.00,1.73,-0.02,-0.00,-0.01
-1.00,1.74,-0.01,-0.00,-0.00
-1.00,1.67,-0.05,-0.00,-0.11
-1.00,1.73,0.02,0.00,0.01
-1.00,1.75,-0.01,-0.00,-0.00
-1.00,2.17,0.10,0.00,1.14
-1.00,2.65,-0.02,-0.00,-0.01
-1.00,2.59,-0.25,-0.02,-15.61
-1.00,1.91,-0.20,-0.01,-8.09
-1.00,1.45,0.24,0.01,13.82
-1.00,1.45,0.40,0.06,62.39
-1.00,1.56,0.12,0.00,1.57
-1.00,1.56,-0.18,-0.01,-5.65
-1.00,1.62,-0.18,-0.01,-6.06
-1.00,1.66,-0.12,-0.00,-1.75
-1.00,1.78,-0.01,-0.00,-0.00
-1.00,1.77,-0.01,-0.00,-0.00
-1.00,1.83,0.06,0.00,0.26
-1.00,1.82,0.04,0.00,0.08
-1.00,1.87,0.06,0.00,0.21
-1.00,1.85,0.00,0.00,0.00
-1.00,1.93,0.03,0.00,0.02
-1.00,1.93,-0.03,-0.00,-0.03
-1.00,1.99,-0.01,-0.00,-0.00
-1.00,2.02,-0.03,-0.00,-0.02
-1.00,2.10,0.00,0.00,0.00
-1.00,2.12,-0.02,-0.00,-0.01
-1.00,2.18,0.01,0.00,0.00
-1.00,2.17,-0.01,-0.00,-0.00
-1.00,2.22,0.02,0.00,0.01
-1.00,2.18,-0.01,-0.00,-0.00
-1.00,2.19,0.02,0.00,0.01
-1.00,2.06,-0.03,-0.00,-0.03
-1.00,1.97,0.02,0.00,0.01
-1.00,1.86,0.02,0.00,0.01
-1.00,1.80,0.02,0.00,0.01
-1.00,1.72,-0.02,-0.00,-0.00
-1.00,1.71,0.00,0.00,0.00
-1.00,1.66,-0.03,-0.00,-0.03
-1.00,1.70,0.00,0.00,0.00
-1.00,1.65,-0.04,-0.00,-0.05
-1.00,1.68,0.02,0.00,0.00
-1.00,1.65,-0.01,-0.00,-0.00
-1.00,1.70,0.03,0.00,0.03
-1.00,1.70,-0.01,-0.00,-0.00
-1.00,1.78,0.02,0.00,0.01
-1.00,1.78,-0.03,-0.00,-0.02
-1.00,1.84,0.01,0.00,0.00
-1.00,1.82,-0.02,-0.00,-0.01
-1.00,1.86,0.02,0.00,0.01
-1.00,1.80,-0.02,-0.00,-0.00
-1.00,1.80,0.02,0.00,0.01
-1.00,1.74,-0.00,-0.00,-0.00
-1.00,1.74,0.02,0.00,0.01
-1.00,1.69,-0.02,-0.00,-0.00
-1.00,1.68,-0.00,-0.00,-0.00
-1.00,1.62,-0.02,-0.00,-0.01
-1.00,1.63,0.02,0.00,0.00
-1.00,1.57,-0.02,-0.00,-0.01
-1.00,1.57,0.02,0.00,0.00
-1.00,1.52,-0.01,-0.00,-0.00
-1.00,1.53,0.01,0.00,0.00
-1.00,1.49,-0.01,-0.00,-0.00
-1.00,1.46,0.00,0.00,0.00
-1.00,1.39,-0.01,-0.00,-0.00
-1.00,1.42,0.04,0.00,0.04
-1.00,1.40,-0.01,-0.00,-0.00
-1.00,1.48,0.02,0.00,0.00
-1.00,1.50,-0.03,-0.00,-0.04
-1.00,1.56,-0.01,-0.00,-0.00
-1.00,1.52,-0.03,-0.00,-0.03
-1.00,1.56,0.04,0.00,0.05
-1.00,1.53,-0.00,-0.00,-0.00
-1.00,1.59,0.04,0.00,0.05
-1.00,1.61,-0.01,-0.00,-0.00
-1.00,1.69,0.01,0.00,0.00
-1.00,1.71,-0.03,-0.00,-0.03
-1.00,1.77,0.00,0.00,0.00
-1.00,1.76,-0.02,-0.00,-0.01
-1.00,1.85,0.03,0.00,0.03
-1.00,2.20,0.09,0.00,0.64
-1.00,2.66,-0.00,-0.00,-0.00
-1.00,2.43,-0.29,-0.02,-23.45
-1.00,1.85,-0.12,-0.00,-1.69
-1.00,1.55,0.26,0.02,17.19
-1.00,1.71,0.34,0.04,40.09
-1.00,1.80,-0.00,-0.00,-0.00
-1.00,1.88,-0.17,-0.00,-4.65
-1.00,1.86,-0.18,-0.01,-6.03
-1.00,1.89,-0.06,-0.00,-0.22
-1.00,1.85,-0.00,-0.00,-0.00
-1.00,1.90,0.07,0.00,0.40
-1.00,1.92,0.04,0.00,0.08
-1.00,1.93,0.02,0.00,0.01
-1.00,1.85,-0.02,-0.00,-0.00
-1.00,1.90,0.04,0.00,0.08
-1.00,1.91,-0.01,-0.00,-0.00
-1.00,1.96,-0.01,-0.00,-0.00
-1.00,1.94,-0.04,-0.00,-0.07
-1.00,2.01,0.01,0.00,0.00
-1.00,2.01,-0.02,-0.00,-0.01
-1.00,2.09,0.02,0.00,0.01
-1.00,2.10,-0.02,-0.00,-0.00
-1.00,2.17,0.02,0.00,0.00
-1.00,2.14,-0.02,-0.00,-0.01
-1.00,2.14,0.01,0.00,0.00
-1.00,2.02,-0.01,-0.00,-0.00
-1.00,1.98,0.04,0.00,0.06
-1.00,1.81,-0.02,-0.00,-0.00
-1.00,1.70,0.03,0.00,0.02
-1.00,1.56,0.00,0.00,0.00
-1.00,1.53,0.03,0.00,0.02
-1.00,1.48,-0.02,-0.00,-0.02
-1.00,1.50,-0.02,-0.00,-0.00
-1.00,1.49,-0.04,-0.00,-0.06
-1.00,1.56,0.01,0.00,0.00
-1.00,1.55,-0.03,-0.00,-0.03
-1.00,1.59,0.02,0.00,0.01
-1.00,1.57,0.00,0.00,0.00
-1.00,1.63,0.04,0.00,0.06
-1.00,1.62,-0.01,-0.00,-0.00
-1.00,1.70,0.02,0.00,0.01
-1.00,1.71,-0.02,-0.00,-0.01
-1.00,1.80,0.01,0.00,0.00
-1.00,1.79,-0.04,-0.00,-0.06
-1.00,1.78,-0.00,-0.00,-0.00
-1.00,1.75,0.01,0.00,0.00
-1.00,1.80,0.04,0.00,0.07
-1.00,1.78,-0.02,-0.00,-0.00
-1.00,1.80,-0.00,-0.00,-0.00
-1.00,1.76,-0.02,-0.00,-0.01
-1.00,1.79,0.02,0.00,0.00
-1.00,1.75,-0.02,-0.00,-0.01
-1.00,1.77,0.02,0.00,0.01
-1.00,1.71,-0.02,-0.00,-0.01
-1.00,1.74,0.03,0.00,0.03
-1.00,1.71,-0.02,-0.00,-0.00
-1.00,1.78,0.02,0.00,0.01
-1.00,1.76,-0.03,-0.00,-0.03
-1.00,1.83,0.01,0.00,0.00
-1.00,1.80,-0.03,-0.00,-0.02
-1.00,1.86,0.03,0.00,0.02
-1.00,1.88,-0.00,-0.00,-0.00
-1.00,1.99,0.03,0.00,0.02
-1.00,1.96,-0.05,-0.00,-0.09
-1.00,2.01,0.01,0.00,0.00
-1.00,1.96,-0.02,-0.00,-0.01
-1.00,1.98,0.04,0.00,0.05
-1.00,1.92,-0.01,-0.00,-0.00
-1.00,1.95,0.03,0.00,0.03
-1.00,1.91,-0.02,-0.00,-0.01
-1.00,1.94,0.01,0.00,0.00
-1.00,1.89,-0.03,-0.00,-0.03
-1.00,1.91,0.01,0.00,0.00
-1.00,1.85,-0.02,-0.00,-0.01
-1.00,2.23,0.13,0.00,2.06
-1.00,2.65,-0.01,-0.00,-0.00
-1.00,2.65,-0.22,-0.01,-10.83
-1.00,1.99,-0.23,-0.01,-12.87
-1.00,1.52,0.20,0.01,8.08
-1.00,1.49,0.38,0.05,53.02
-1.00,1.63,0.14,0.00,2.87
-1.00,1.65,-0.16,-0.00,-4.02
-1.00,1.73,-0.18,-0.01,-5.76
-1.00,1.72,-0.14,-0.00,-2.96
-1.00,1.79,-0.01,-0.00,-0.00
-1.00,1.80,0.02,0.00,0.01
-1.00,1.90,0.08,0.00,0.44
-1.00,1.84,0.00,0.00,0.00
-1.00,1.88,0.06,0.00,0.19
-1.00,1.85,0.01,0.00,0.00
-1.00,1.89,0.02,0.00,0.01
-1.00,1.83,-0.03,-0.00,-0.04
-1.00,1.88,0.01,0.00,0.00
-1.00,1.86,-0.03,-0.00,-0.02
-1.00,1.94,0.01,0.00,0.00
-1.00,1.93,-0.03,-0.00,-0.04
-1.00,1.99,0.01,0.00,0.00
-1.00,1.97,-0.02,-0.00,-0.01
-1.00,2.01,0.02,0.00,0.01
-1.00,1.94,-0.01,-0.00,-0.00
-1.00,1.93,0.03,0.00,0.03
-1.00,1.79,-0.02,-0.00,-0.01
-1.00,1.70,0.02,0.00,0.01
-1.00,1.54,0.00,0.00,0.00
-1.00,1.47,0.03,0.00,0.03
-1.00,1.34,-0.02,-0.00,-0.01
-1.00,1.35,0.02,0.00,0.01
-1.00,1.34,-0.03,-0.00,-0.02
-1.00,1.43,-0.01,-0.00,-0.00
-1.00,1.44,-0.05,-0.00,-0.12
-1.00,1.49,-0.00,-0.00,-0.00
-1.00,1.48,-0.00,-0.00,-0.00
-1.00,1.57,0.05,0.00,0.15
-1.00,1.61,0.00,0.00,0.00
-1.00,1.76,0.03,0.00,0.04
-1.00,1.82,-0.04,-0.00,-0.04
-1.00,1.95,-0.00,-0.00,-0.00
-1.00,1.96,-0.03,-0.00,-0.04
-1.00,2.02,0.02,0.00,0.01
-1.00,1.98,-0.01,-0.00,-0.00
-1.00,2.00,0.04,0.00,0.04
-1.00,1.93,-0.01,-0.00,-0.00
-1.00,1.92,0.03,0.00,0.02
-1.00,1.84,-0.02,-0.00,-0.00
-1.00,1.86,0.02,0.00,0.01
-1.00,1.80,-0.03,-0.00,-0.04
-1.00,1.84,0.01,0.00,0.00
-1.00,1.83,-0.02,-0.00,-0.01
-1.00,1.89,0.01,0.00,0.00
-1.00,1.86,-0.03,-0.00,-0.02
-1.00,1.90,0.02,0.00,0.01
-1.00,1.86,-0.01,-0.00,-0.00
-1.00,1.89,0.03,0.00,0.04
-1.00,1.84,-0.01,-0.00,-0.00
-1.00,1.85,0.02,0.00,0.01
-1.00,1.77,-0.02,-0.00,-0.01
-1.00,1.78,0.03,0.00,0.02
-1.00,1.77,-0.00,-0.00,-0.00
-1.00,1.84,0.01,0.00,0.00
-1.00,1.79,-0.05,-0.00,-0.13
-1.00,1.82,0.01,0.00,0.00
-1.00,1.74,-0.02,-0.00,-0.01
-1.00,1.76,0.04,0.00,0.06
-1.00,1.73,0.00,0.00,0.00
-1.00,1.79,0.03,0.00,0.02
-1.00,1.77,-0.03,-0.00,-0.03
-1.00,1.82,0.00,0.00,0.00
-1.00,1.74,-0.04,-0.00,-0.06
-1.00,1.82,0.05,0.00,0.10
-1.00,2.32,0.13,0.00,2.43
-1.00,2.71,-0.08,-0.00,-0.56
-1.00,2.50,-0.29,-0.02,-24.01
-1.00,1.82,-0.14,-0.00,-2.70
-1.00,1.46,0.29,0.03,25.41
-1.00,1.55,0.37,0.05,52.45
-1.00,1.60,0.02,0.00,0.01
-1.00,1.68,-0.16,-0.00,-4.04
-1.00,1.67,-0.20,-0.01,-8.16
-1.00,1.71,-0.08,-0.00,-0.59
-1.00,1.71,-0.02,-0.00,-0.01
-1.00,1.77,0.06,0.00,0.20
-1.00,1.76,0.03,0.00,0.04
-1.00,1.84,0.06,0.00,0.27
-1.00,1.85,0.00,0.00,0.00
-1.00,1.94,0.02,0.00,0.01
-1.00,1.92,-0.04,-0.00,-0.04
-1.00,1.96,0.00,0.00,0.00
-1.00,1.89,-0.03,-0.00,-0.03
-1.00,1.96,0.05,0.00,0.09
-1.00,1.96,-0.01,-0.00,-0.00
-1.00,2.05,0.01,0.00,0.00
-1.00,2.05,-0.04,-0.00,-0.05
-1.00,2.12,0.01,0.00,0.00
-1.00,2.09,-0.03,-0.00,-0.02
-1.00,2.11,0.02,0.00,0.01
-1.00,2.00,-0.01,-0.00,-0.00
-1.00,1.95,0.03,0.00,0.04
-1.00,1.80,-0.00,-0.00,-0.00
-1.00,1.70,0.02,0.00,0.02
-1.00,1.57,0.00,0.00,0.00
-1.00,1.56,0.03,0.00,0.02
-1.00,1.51,-0.03,-0.00,-0.03
-1.00,1.56,-0.00,-0.00,-0.00
-1.00,1.57,-0.04,-0.00,-0.07
-1.00,1.62,-0.01,-0.00,-0.00
-1.00,1.59,-0.02,-0.00,-0.01
-1.00,1.65,0.04,0.00,0.06
-1.00,1.63,0.00,0.00,0.00
-1.00,1.73,0.05,0.00,0.10
-1.00,1.66,-0.04,-0.00,-0.06
-1.00,1.70,0.02,0.00,0.01
-1.00,1.67,-0.01,-0.00,-0.00
-1.00,1.73,0.02,0.00,0.01
-1.00,1.68,-0.03,-0.00,-0.04
-1.00,1.72,0.02,0.00,0.01
-1.00,1.67,-0.03,-0.00,-0.02
-1.00,1.72,0.02,0.00,0.01
-1.00,1.65,-0.03,-0.00,-0.03
-1.00,1.68,0.03,0.00,0.02
-1.00,1.72,0.01,0.00,0.00
-1.00,1.78,-0.00,-0.00,-0.00
-1.00,1.77,-0.04,-0.00,-0.05
-1.00,1.82,0.01,0.00,0.00
-1.00,1.77,-0.02,-0.00,-0.01
-1.00,1.82,0.04,0.00,0.06
-1.00,1.77,-0.01,-0.00,-0.00
-1.00,1.80,0.03,0.00,0.02
-1.00,1.77,-0.02,-0.00,-0.00
-1.00,1.83,0.02,0.00,0.01
-1.00,1.78,-0.04,-0.00,-0.05
-1.00,1.81,0.01,0.00,0.00
-1.00,1.76,-0.02,-0.00,-0.01
-1.00,1.80,0.03,0.00,0.02
-1.00,1.74,-0.02,-0.00,-0.01
-1.00,1.75,0.02,0.00,0.01
-1.00,1.74,-0.00,-0.00,-0.00
-1.00,1.82,0.03,0.00,0.02
-1.00,1.79,-0.04,-0.00,-0.07
-1.00,1.84,0.00,0.00,0.00
-1.00,1.77,-0.03,-0.00,-0.02
-1.00,1.78,0.03,0.00,0.03
-1.00,1.72,-0.00,-0.00,-0.00
-1.00,1.76,0.04,0.00,0.05
-1.00,1.70,-0.03,-0.00,-0.02
-1.00,1.75,0.02,0.00,0.01
-1.00,1.73,-0.03,-0.00,-0.03
-1.00,1.80,0.02,0.00,0.00
-1.00,1.73,-0.05,-0.00,-0.10
-1.00,2.12,0.13,0.00,2.25
-1.00,2.60,0.01,0.00,0.00
-1.00,2.61,-0.23,-0.01,-12.13
-1.00,1.92,-0.25,-0.02,-15.85
-1.00,1.50,0.23,0.01,11.76
-1.00,1.49,0.38,0.05,54.20
-1.00,1.63,0.13,0.00,2.21
-1.00,1.63,-0.17,-0.01,-5.08
-1.00,1.71,-0.17,-0.00,-4.65
-1.00,1.68,-0.14,-0.00,-2.83
-1.00,1.74,-0.00,-0.00,-0.00
-1.00,1.72,0.01,0.00,0.00
-1.00,1.77,0.08,0.00,0.46
-1.00,1.75,0.03,0.00,0.02
-1.00,1.82,0.05,0.00,0.15
-1.00,1.80,-0.02,-0.00,-0.01
-1.00,1.86,0.01,0.00,0.00
-1.00,1.84,-0.03,-0.00,-0.03
-1.00,1.93,0.02,0.00,0.01
-1.00,1.92,-0.03,-0.00,-0.03
-1.00,2.01,0.01,0.00,0.00
-1.00,2.00,-0.03,-0.00,-0.02
-1.00,2.07,0.02,0.00,0.01
-1.00,2.04,-0.02,-0.00,-0.01
-1.00,2.07,0.03,0.00,0.02
-1.00,2.00,-0.01,-0.00,-0.00
-1.00,2.00,0.03,0.00,0.02
-1.00,1.85,-0.03,-0.00,-0.04
-1.00,1.77,0.03,0.00,0.03
-1.00,1.62,-0.00,-0.00,-0.00
-1.00,1.57,0.03,0.00,0.03
-1.00,1.41,-0.03,-0.00,-0.04
-1.00,1.43,0.03,0.00,0.03
-1.00,1.41,-0.02,-0.00,-0.01
-1.00,1.51,-0.00,-0.00,-0.00
-1.00,1.51,-0.06,-0.00,-0.17
-1.00,1.59,0.01,0.00,0.00
-1.00,1.58,-0.02,-0.00,-0.01
-1.00,1.66,0.04,0.00,0.08
-1.00,1.66,0.00,0.00,0.00
-1.00,1.73,0.03,0.00,0.03
-1.00,1.68,-0.02,-0.00,-0.01
-1.00,1.75,0.03,0.00,0.04
-1.00,1.72,-0.02,-0.00,-0.01
-1.00,1.76,0.01,0.00,0.00
-1.00,1.71,-0.03,-0.00,-0.02
-1.00,1.76,0.02,0.00,0.01
-1.00,1.71,-0.03,-0.00,-0.02
-1.00,1.74,0.02,0.00,0.01
-1.00,1.68,-0.03,-0.00,-0.02
-1.00,1.71,0.03,0.00,0.02
-1.00,1.67,-0.02,-0.00,-0.00
-1.00,1.72,0.02,0.00,0.01
-1.00,1.68,-0.03,-0.00,-0.02
-1.00,1.75,0.02,0.00,0.01
-1.00,1.69,-0.04,-0.00,-0.06
-1.00,1.74,0.03,0.00,0.03
-1.00,1.71,-0.02,-0.00,-0.00
-1.00,1.76,0.02,0.00,0.01
-1.00,1.74,-0.02,-0.00,-0.01
-1.00,1.78,0.02,0.00,0.01
-1.00,1.70,-0.04,-0.00,-0.04
-1.00,1.71,0.03,0.00,0.02
-1.00,1.68,0.01,0.00,0.00
-1.00,1.74,0.03,0.00,0.02
-1.00,1.68,-0.05,-0.00,-0.10
-1.00,1.76,0.03,0.00,0.02
-1.00,1.77,-0.02,-0.00,-0.01
-1.00,1.86,0.01,0.00,0.00
-1.00,1.81,-0.04,-0.00,-0.08
-1.00,1.86,0.03,0.00,0.02
-1.00,1.81,-0.01,-0.00,-0.00
-1.00,1.84,0.03,0.00,0.04
-1.00,1.79,-0.01,-0.00,-0.00
-1.00,1.85,0.03,0.00,0.02
-1.00,1.79,-0.04,-0.00,-0.05
-1.00,1.83,0.01,0.00,0.00
-1.00,1.76,-0.03,-0.00,-0.02
-1.00,1.76,0.02,0.00,0.00
-1.00,1.81,0.03,0.00,0.02
-1.00,2.46,0.16,0.00,4.24
-1.00,2.68,-0.19,-0.01,-7.35
-1.00,2.39,-0.27,-0.02,-19.84
-1.00,1.62,-0.09,-0.00,-0.70
-1.00,1.47,0.41,0.07,68.49
-1.00,1.55,0.29,0.02,24.77
-1.00,1.70,-0.01,-0.00,-0.00
-1.00,1.73,-0.22,-0.01,-10.77
-1.00,1.78,-0.17,-0.00,-4.88
-1.00,1.76,-0.09,-0.00,-0.68
-1.00,1.82,0.04,0.00,0.04
-1.00,1.77,0.03,0.00,0.03
-1.00,1.79,0.07,0.00,0.41
-1.00,1.74,0.03,0.00,0.03
-1.00,1.86,0.06,0.00,0.26
-1.00,1.86,-0.04,-0.00,-0.05
-1.00,1.95,-0.01,-0.00,-0.00
-1.00,1.94,-0.05,-0.00,-0.10
-1.00,2.01,0.01,0.00,0.00
-1.00,2.00,-0.02,-0.00,-0.01
-1.00,2.08,0.03,0.00,0.03
-1.00,2.07,-0.02,-0.00,-0.00
-1.00,2.13,0.02,0.00,0.01
-1.00,2.08,-0.03,-0.00,-0.02
-1.00,2.13,0.03,0.00,0.02
-1.00,2.05,-0.03,-0.00,-0.02
-1.00,2.03,0.02,0.00,0.01
-1.00,1.86,-0.03,-0.00,-0.03
-1.00,1.76,0.03,0.00,0.04
-1.00,1.61,0.01,0.00,0.00
-1.00,1.59,0.04,0.00,0.07
-1.00,1.50,-0.03,-0.00,-0.04
-1.00,1.52,0.00,0.00,0.00
-1.00,1.49,-0.04,-0.00,-0.08
-1.00,1.55,0.00,0.00,0.00
-1.00,1.52,-0.03,-0.00,-0.04
-1.00,1.59,0.03,0.00,0.03
-1.00,1.57,-0.01,-0.00,-0.00
-1.00,1.67,0.04,0.00,0.06
-1.00,1.67,-0.02,-0.00,-0.01
-1.00,1.74,0.02,0.00,0.00
-1.00,1.71,-0.02,-0.00,-0.01
-1.00,1.77,0.03,0.00,0.02
-1.00,1.67,-0.04,-0.00,-0.05
-1.00,1.71,0.05,0.00,0.11
-1.00,1.69,-0.00,-0.00,-0.00
-1.00,1.74,0.01,0.00,0.00
-1.00,1.69,-0.05,-0.00,-0.10
-1.00,1.72,0.01,0.00,0.00
-1.00,1.65,-0.02,-0.00,-0.01
-1.00,1.69,0.03,0.00,0.04
-1.00,1.63,-0.02,-0.00,-0.01
-1.00,1.69,0.03,0.00,0.03
-1.00,1.65,-0.03,-0.00,-0.02
-1.00,1.72,0.02,0.00,0.01
-1.00,1.67,-0.04,-0.00,-0.05
-1.00,1.72,0.02,0.00,0.01
-1.00,1.68,-0.02,-0.00,-0.01
-1.00,1.74,0.03,0.00,0.02
-1.00,1.67,-0.03,-0.00,-0.02
-1.00,1.72,0.03,0.00,0.03
-1.00,1.68,-0.02,-0.00,-0.00
-1.00,1.74,0.03,0.00,0.02
-1.00,1.69,-0.04,-0.00,-0.06
-1.00,1.74,0.02,0.00,0.02
-1.00,1.71,-0.02,-0.00,-0.01
-1.00,1.78,0.03,0.00,0.02
-1.00,1.73,-0.03,-0.00,-0.03
-1.00,1.82,0.04,0.00,0.04
-1.00,1.76,-0.04,-0.00,-0.05
-1.00,1.81,0.02,0.00,0.01
-1.00,1.73,-0.03,-0.00,-0.02
-1.00,1.80,0.05,0.00,0.11
-1.00,1.81,-0.01,-0.00,-0.00
-1.00,1.78,-0.03,-0.00,-0.02
-1.00,1.70,-0.02,-0.00,-0.00
-1.00,1.74,0.05,0.00,0.12
-1.00,1.68,-0.02,-0.00,-0.01
-1.00,1.73,0.03,0.00,0.02
-1.00,1.66,-0.04,-0.00,-0.06
-1.00,1.72,0.02,0.00,0.01
-1.00,1.68,-0.03,-0.00,-0.02
-1.00,1.75,0.03,0.00,0.02
-1.00,1.67,-0.05,-0.00,-0.10
-1.00,1.75,0.05,0.00,0.09
-1.00,2.23,0.12,0.00,1.85
-1.00,2.67,-0.06,-0.00,-0.22
-1.00,2.50,-0.29,-0.02,-24.27
-1.00,1.85,-0.15,-0.00,-3.46
-1.00,1.49,0.27,0.02,20.78
-1.00,1.58,0.38,0.05,53.54
-1.00,1.56,0.02,0.00,0.00
-1.00,1.65,-0.12,-0.00,-1.78
-1.00,1.64,-0.19,-0.01,-6.96
-1.00,1.72,-0.08,-0.00,-0.56
-1.00,1.68,-0.06,-0.00,-0.17
-1.00,1.75,0.06,0.00,0.23
-1.00,1.74,0.03,0.00,0.03
-1.00,1.82,0.06,0.00,0.25
-1.00,1.79,-0.00,-0.00,-0.00
-1.00,1.87,0.04,0.00,0.06
-1.00,1.86,-0.03,-0.00,-0.02
-1.00,1.94,0.01,0.00,0.00
-1.00,1.91,-0.04,-0.00,-0.05
-1.00,1.96,0.01,0.00,0.00
-1.00,1.93,-0.02,-0.00,-0.01
-1.00,2.04,0.05,0.00,0.10
-1.00,2.04,-0.03,-0.00,-0.04
-1.00,2.13,0.01,0.00,0.00
-1.00,2.08,-0.04,-0.00,-0.06
-1.00,2.12,0.02,0.00,0.01
-1.00,2.01,-0.02,-0.00,-0.01
-1.00,2.01,0.04,0.00,0.08
-1.00,1.82,-0.03,-0.00,-0.03
-1.00,1.73,0.04,0.00,0.06
-1.00,1.52,-0.01,-0.00,-0.00
-1.00,1.47,0.05,0.00,0.12
-1.00,1.35,-0.02,-0.00,-0.01
-1.00,1.38,0.01,0.00,0.00
-1.00,1.32,-0.05,-0.00,-0.17
-1.00,1.40,0.00,0.00,0.00
-1.00,1.40,-0.04,-0.00,-0.05
-1.00,1.49,0.02,0.00,0.01
-1.00,1.45,-0.02,-0.00,-0.02
-1.00,1.51,0.04,0.00,0.07
-1.00,1.48,0.00,0.00,0.00
-1.00,1.57,0.05,0.00,0.10
-1.00,1.58,-0.01,-0.00,-0.00
-1.00,1.65,-0.00,-0.00,-0.00
-1.00,1.65,-0.03,-0.00,-0.02
-1.00,1.77,0.03,0.00,0.02
-1.00,1.77,-0.04,-0.00,-0.05
-1.00,1.84,0.01,0.00,0.00
-1.00,1.85,-0.01,-0.00,-0.00
-1.00,1.95,0.03,0.00,0.03
-1.00,1.89,-0.04,-0.00,-0.07
-1.00,1.92,0.03,0.00,0.02
-1.00,1.88,-0.00,-0.00,-0.00
-1.00,1.95,0.03,0.00,0.04
-1.00,1.89,-0.04,-0.00,-0.04
-1.00,1.96,0.02,0.00,0.01
-1.00,1.88,-0.05,-0.00,-0.10
-1.00,1.90,0.03,0.00,0.02
-1.00,1.85,-0.01,-0.00,-0.00
-1.00,1.91,0.03,0.00,0.04
-1.00,1.84,-0.04,-0.00,-0.05
-1.00,1.87,0.02,0.00,0.01
-1.00,1.82,-0.02,-0.00,-0.00
-1.00,1.87,0.02,0.00,0.01
-1.00,1.80,-0.03,-0.00,-0.03
-1.00,1.83,0.02,0.00,0.01
-1.00,1.77,-0.02,-0.00,-0.01
-1.00,1.82,0.03,0.00,0.04
-1.00,1.77,-0.03,-0.00,-0.02
-1.00,1.82,0.02,0.00,0.01
-1.00,1.78,-0.03,-0.00,-0.02
-1.00,1.83,0.02,0.00,0.01
-1.00,1.81,-0.02,-0.00,-0.00
-1.00,1.83,0.01,0.00,0.00
-1.00,1.75,-0.02,-0.00,-0.01
-1.00,1.85,0.06,0.00,0.19
-1.00,1.87,-0.02,-0.00,-0.01
-1.00,1.92,-0.01,-0.00,-0.00
-1.00,1.86,-0.04,-0.00,-0.08
-1.00,1.86,0.02,0.00,0.01
-1.00,1.76,-0.00,-0.00,-0.00
-1.00,1.74,0.04,0.00,0.05
-1.00,1.68,0.01,0.00,0.00
-1.00,1.76,0.03,0.00,0.04
-1.00,1.73,-0.05,-0.00,-0.15
-1.00,1.79,-0.00,-0.00,-0.00
-1.00,1.72,-0.05,-0.00,-0.15
-1.00,1.79,0.04,0.00,0.08
-1.00,2.24,0.13,0.00,1.96
-1.00,2.71,-0.03,-0.00,-0.04
-1.00,2.60,-0.28,-0.02,-20.96
-1.00,1.94,-0.18,-0.01,-6.11
-1.00,1.49,0.25,0.01,14.99
-1.00,1.56,0.41,0.07,67.03
-1.00,1.61,0.06,0.00,0.26
-1.00,1.67,-0.15,-0.00,-3.18
-1.00,1.64,-0.21,-0.01,-9.51
-1.00,1.73,-0.08,-0.00,-0.52
-1.00,1.70,-0.05,-0.00,-0.13
-1.00,1.79,0.06,0.00,0.20
-1.00,1.76,0.02,0.00,0.01
-1.00,1.83,0.07,0.00,0.36
-1.00,1.80,0.00,0.00,0.00
-1.00,1.87,0.04,0.00,0.07
-1.00,1.84,-0.03,-0.00,-0.02
-1.00,1.92,0.02,0.00,0.01
-1.00,1.94,-0.02,-0.00,-0.01
-1.00,2.02,-0.00,-0.00,-0.00
-1.00,2.02,-0.03,-0.00,-0.04
-1.00,2.11,0.02,0.00,0.01
-1.00,2.08,-0.03,-0.00,-0.02
-1.00,2.13,0.03,0.00,0.02
-1.00,2.02,-0.03,-0.00,-0.03
-1.00,2.06,0.06,0.00,0.17
-1.00,1.97,-0.02,-0.00,-0.00
-1.00,1.96,0.02,0.00,0.01
-1.00,1.82,-0.04,-0.00,-0.05
-1.00,1.77,0.02,0.00,0.01
-1.00,1.64,-0.01,-0.00,-0.00
-1.00,1.62,0.03,0.00,0.03
-1.00,1.52,-0.02,-0.00,-0.01
-1.00,1.58,0.02,0.00,0.01
-1.00,1.55,-0.04,-0.00,-0.06
-1.00,1.63,0.01,0.00,0.00
-1.00,1.59,-0.04,-0.00,-0.07
-1.00,1.67,0.03,0.00,0.03
-1.00,1.64,-0.01,-0.00,-0.00
-1.00,1.72,0.04,0.00,0.05
-1.00,1.67,-0.02,-0.00,-0.01
-1.00,1.74,0.04,0.00,0.05
-1.00,1.71,-0.02,-0.00,-0.01
-1.00,1.77,0.02,0.00,0.01
-1.00,1.69,-0.04,-0.00,-0.07
-1.00,1.74,0.03,0.00,0.03
-1.00,1.68,-0.02,-0.00,-0.01
-1.00,1.74,0.03,0.00,0.02
-1.00,1.67,-0.04,-0.00,-0.06
-1.00,1.73,0.03,0.00,0.03
-1.00,1.69,-0.02,-0.00,-0.01
-1.00,1.74,0.02,0.00,0.01
-1.00,1.66,-0.04,-0.00,-0.04
-1.00,1.72,0.04,0.00,0.07
-1.00,1.64,-0.03,-0.00,-0.03
-1.00,1.69,0.04,0.00,0.04
-1.00,1.64,-0.02,-0.00,-0.01
-1.00,1.72,0.03,0.00,0.03
-1.00,1.67,-0.04,-0.00,-0.07
-1.00,1.73,0.02,0.00,0.01
-1.00,1.65,-0.03,-0.00,-0.04
-1.00,1.72,0.04,0.00,0.07
